2012-01-03T07:00:00Z,42.650000000,42.560000000,43.140000000,42.480000000,1474354
2012-01-04T07:00:00Z,42.550000000,42.650000000,42.840000000,42.290000000,1454166
2012-01-05T07:00:00Z,42.245000000,42.270000000,42.320000000,41.635000000,2289044
2012-01-06T07:00:00Z,42.240000000,42.380000000,42.470000000,42.118000000,1253206
2012-01-09T07:00:00Z,42.400000000,42.165000000,42.485000000,41.960000000,1711536
2012-01-10T07:00:00Z,42.705000000,43.070000000,43.330000000,42.655000000,1535858
2012-01-11T07:00:00Z,42.950000000,43.300000000,43.300000000,42.910000000,1590852
2012-01-12T07:00:00Z,43.375000000,44.000000000,44.045000000,43.225000000,1364352
2012-01-13T07:00:00Z,43.850000000,43.760000000,44.010000000,43.205000000,1440300
2012-01-17T07:00:00Z,44.370000000,44.020000000,44.520000000,43.800000000,1382198
2012-01-18T07:00:00Z,44.135000000,44.950000000,44.990000000,44.040000000,2099990
2012-01-19T07:00:00Z,44.700000000,43.880000000,44.700000000,43.370000000,4021142
2012-01-20T07:00:00Z,43.845000000,44.460000000,44.600000000,43.845000000,2433180
2012-01-23T07:00:00Z,44.425000000,44.165000000,44.500000000,44.008000000,1357896
2012-01-24T07:00:00Z,43.750000000,44.250000000,44.305000000,43.620000000,1800666
2012-01-25T07:00:00Z,44.040000000,44.710000000,44.845000000,43.825000000,1366398
2012-01-26T07:00:00Z,44.975000000,44.415000000,45.445000000,44.255000000,1909998
2012-01-27T07:00:00Z,44.370000000,44.530000000,44.760000000,44.035000000,1581184
2012-01-30T07:00:00Z,44.015000000,44.735000000,44.795000000,43.805000000,1609468
2012-01-31T07:00:00Z,44.900000000,44.790000000,45.000000000,44.265000000,2158642
2012-02-01T07:00:00Z,45.360000000,45.430000000,45.815000000,45.150000000,2308598
2012-02-02T07:00:00Z,45.490000000,44.900000000,45.490000000,44.850000000,1325616
2012-02-03T07:00:00Z,45.485000000,45.610000000,45.780000000,45.350000000,2186714
2012-02-06T07:00:00Z,45.335000000,45.440000000,45.473000000,45.215000000,972738
2012-02-07T07:00:00Z,45.285000000,45.635000000,45.700000000,44.995000000,1378262
2012-02-08T07:00:00Z,45.615000000,45.805000000,45.850000000,45.185000000,1223906
2012-02-09T07:00:00Z,45.805000000,46.015000000,46.045000000,45.580000000,1846398
2012-02-10T07:00:00Z,45.580000000,45.415000000,45.580000000,45.090000000,1489844
2012-02-13T07:00:00Z,45.705000000,45.540000000,45.915000000,45.415000000,1035048
2012-02-14T07:00:00Z,45.520000000,45.260000000,45.690000000,44.840000000,1943074
2012-02-15T07:00:00Z,45.310000000,44.970000000,45.310000000,44.675000000,1619730
2012-02-16T07:00:00Z,45.035000000,45.700000000,45.760000000,44.950000000,1405156
2012-02-17T07:00:00Z,45.930000000,46.060000000,46.225000000,45.770000000,1616626
2012-02-21T07:00:00Z,45.660000000,45.985000000,46.150000000,45.450000000,2848262
2012-02-22T07:00:00Z,45.990000000,45.900000000,46.580000000,45.865000000,2048592
2012-02-23T07:00:00Z,45.845000000,46.100000000,46.250000000,45.740000000,1010040
2012-02-24T07:00:00Z,46.000000000,45.835000000,46.280000000,45.743000000,1290500
2012-02-27T07:00:00Z,45.595000000,46.470000000,46.590000000,45.350000000,1776394
2012-02-28T07:00:00Z,46.395000000,46.465000000,46.835000000,46.175000000,2121288
2012-02-29T07:00:00Z,46.460000000,45.625000000,46.570000000,45.470000000,2340588
2012-03-01T07:00:00Z,45.745000000,46.330000000,46.490000000,45.745000000,1628404
2012-03-02T07:00:00Z,46.475000000,46.250000000,46.700000000,46.055000000,1115736
2012-03-05T07:00:00Z,46.080000000,45.810000000,46.150000000,45.600000000,1310106
2012-03-06T07:00:00Z,45.115000000,45.205000000,45.480000000,45.020000000,1556024
2012-03-07T07:00:00Z,45.315000000,45.275000000,45.465000000,45.027000000,1958198
2012-03-08T07:00:00Z,45.755000000,46.470000000,46.698000000,45.700000000,2057324
2012-03-09T07:00:00Z,46.500000000,46.385000000,46.820000000,46.300000000,1498584
2012-03-12T07:00:00Z,46.480000000,46.545000000,46.815000000,46.340000000,1302660
2012-03-13T07:00:00Z,46.855000000,47.155000000,47.205000000,46.685000000,1717452
2012-03-14T07:00:00Z,47.090000000,46.840000000,47.295000000,46.625000000,1530500
2012-03-15T07:00:00Z,46.950000000,46.820000000,46.985000000,46.630000000,2040498
2012-03-16T07:00:00Z,47.035000000,46.795000000,47.260000000,46.670000000,2810318
2012-03-19T07:00:00Z,46.675000000,47.230000000,47.385000000,46.675000000,3569720
2012-03-20T07:00:00Z,46.880000000,46.965000000,47.095000000,46.660000000,2414680
2012-03-21T07:00:00Z,46.945000000,47.070000000,47.325000000,46.690000000,1573056
2012-03-22T07:00:00Z,46.800000000,46.480000000,46.810000000,46.285000000,1403484
2012-03-23T07:00:00Z,46.540000000,46.825000000,47.085000000,46.185000000,1505000
2012-03-26T07:00:00Z,47.165000000,47.705000000,47.710000000,46.915000000,1606328
2012-03-27T07:00:00Z,47.785000000,47.870000000,48.165000000,47.720000000,1613232
2012-03-28T07:00:00Z,47.880000000,47.390000000,48.200000000,47.185000000,2311126
2012-03-29T07:00:00Z,47.000000000,47.845000000,47.913000000,47.000000000,2069512
2012-03-30T07:00:00Z,48.200000000,47.900000000,48.200000000,47.705000000,1379648
2012-04-02T07:00:00Z,47.820000000,48.840000000,48.900000000,47.795000000,3147370
2012-04-03T07:00:00Z,48.610000000,47.840000000,48.686000000,47.255000000,4339778
2012-04-04T07:00:00Z,47.490000000,46.960000000,47.520000000,46.865000000,4387500
2012-04-05T07:00:00Z,48.850000000,48.145000000,49.275000000,47.650000000,10618056
2012-04-09T07:00:00Z,47.490000000,47.125000000,47.820000000,47.100000000,5608234
2012-04-10T07:00:00Z,47.045000000,46.045000000,47.190000000,45.924000000,6467408
2012-04-11T07:00:00Z,46.660000000,47.270000000,47.440000000,46.560000000,3004876
2012-04-12T07:00:00Z,47.380000000,48.415000000,48.560000000,47.220000000,3351576
2012-04-13T07:00:00Z,48.160000000,47.860000000,48.305000000,47.800000000,2811844
2012-04-16T07:00:00Z,48.615000000,48.450000000,48.745000000,47.755000000,2474818
2012-04-17T07:00:00Z,48.785000000,49.170000000,49.370000000,48.630000000,2452292
2012-04-18T07:00:00Z,48.820000000,49.235000000,49.445000000,48.580000000,3161040
2012-04-19T07:00:00Z,49.485000000,50.500000000,50.950000000,48.695000000,7327276
2012-04-20T07:00:00Z,50.650000000,50.645000000,51.090000000,50.145000000,4018862
2012-04-23T07:00:00Z,50.295000000,50.505000000,50.520000000,49.700000000,3353996
2012-04-24T07:00:00Z,50.610000000,51.000000000,51.080000000,50.548000000,3630016
2012-04-25T07:00:00Z,51.335000000,52.085000000,52.135000000,51.195000000,2344404
2012-04-26T07:00:00Z,51.845000000,52.610000000,52.910000000,51.700000000,2474070
2012-04-27T07:00:00Z,52.860000000,52.830000000,53.055000000,52.535000000,1716558
2012-04-30T07:00:00Z,52.945000000,52.620000000,53.200000000,52.455000000,2057430
2012-05-01T07:00:00Z,52.535000000,53.520000000,53.835000000,52.491000000,3296606
2012-05-02T07:00:00Z,53.120000000,53.595000000,53.655000000,53.045000000,2404292
2012-05-03T07:00:00Z,53.500000000,53.600000000,53.975000000,53.275000000,2159018
2012-05-04T07:00:00Z,53.300000000,52.835000000,53.375000000,52.710000000,2346300
2012-05-07T07:00:00Z,52.505000000,53.450000000,53.520000000,52.475000000,2005044
2012-05-08T07:00:00Z,53.000000000,53.255000000,53.370000000,52.475000000,2475010
2012-05-09T07:00:00Z,52.445000000,52.970000000,53.350000000,52.133000000,3002784
2012-05-10T07:00:00Z,53.495000000,52.865000000,53.505000000,52.740000000,1949756
2012-05-11T07:00:00Z,52.595000000,52.595000000,53.190000000,52.460000000,2072552
2012-05-14T07:00:00Z,52.000000000,51.560000000,52.255000000,51.490000000,2829750
2012-05-15T07:00:00Z,51.405000000,51.090000000,51.805000000,50.940000000,2804944
2012-05-16T07:00:00Z,51.215000000,50.875000000,51.730000000,50.810000000,1594996
2012-05-17T07:00:00Z,51.000000000,49.425000000,51.070000000,49.385000000,2631844
2012-05-18T07:00:00Z,49.835000000,48.780000000,49.875000000,48.545000000,2701944
2012-05-21T07:00:00Z,49.065000000,49.770000000,49.860000000,48.810000000,1885062
2012-05-22T07:00:00Z,50.000000000,49.630000000,50.360000000,49.370000000,1652168
2012-05-23T07:00:00Z,49.180000000,50.400000000,50.625000000,48.935000000,3234904
2012-05-24T07:00:00Z,51.935000000,52.100000000,52.295000000,51.120000000,4060480
2012-05-25T07:00:00Z,51.760000000,51.590000000,52.325000000,51.325000000,1927802
2012-05-29T07:00:00Z,52.305000000,52.550000000,52.975000000,52.135000000,1975184
2012-05-30T07:00:00Z,52.040000000,51.130000000,52.105000000,50.860000000,2990790
2012-05-31T07:00:00Z,51.205000000,51.720000000,52.065000000,50.655000000,2498636
2012-06-01T07:00:00Z,50.190000000,49.480000000,50.750000000,49.360000000,2962092
2012-06-04T07:00:00Z,49.455000000,48.885000000,49.500000000,48.368000000,2805560
2012-06-05T07:00:00Z,48.670000000,49.495000000,49.580000000,48.650000000,1930874
2012-06-06T07:00:00Z,49.950000000,50.905000000,50.905000000,49.935000000,1835240
2012-06-07T07:00:00Z,51.780000000,51.290000000,52.230000000,51.195000000,3591656
2012-06-08T07:00:00Z,51.205000000,51.840000000,51.910000000,50.885000000,1161026
2012-06-11T07:00:00Z,52.395000000,50.980000000,52.460000000,50.895000000,2061396
2012-06-12T07:00:00Z,51.230000000,52.075000000,52.125000000,50.915000000,1430634
2012-06-13T07:00:00Z,51.685000000,50.955000000,51.815000000,50.790000000,1292626
2012-06-14T07:00:00Z,51.020000000,50.880000000,51.225000000,50.310000000,2164912
2012-06-15T07:00:00Z,51.240000000,52.070000000,52.130000000,51.100000000,2017904
2012-06-18T07:00:00Z,51.770000000,52.390000000,52.445000000,51.663000000,1156358
2012-06-19T07:00:00Z,52.620000000,53.090000000,53.345000000,52.605000000,1549362
2012-06-20T07:00:00Z,53.015000000,53.020000000,53.445000000,52.665000000,1381172
2012-06-21T07:00:00Z,53.050000000,51.210000000,53.215000000,51.125000000,1698024
2012-06-22T07:00:00Z,51.910000000,52.095000000,52.365000000,51.180000000,3313346
2012-06-25T07:00:00Z,51.615000000,50.665000000,51.615000000,50.590000000,2720200
2012-06-26T07:00:00Z,50.905000000,51.420000000,51.730000000,50.575000000,2111670
2012-06-27T07:00:00Z,51.170000000,51.740000000,51.960000000,51.170000000,1488236
2012-06-28T07:00:00Z,51.505000000,51.750000000,51.845000000,50.826000000,2177086
2012-06-29T07:00:00Z,52.610000000,53.060000000,53.085000000,52.415000000,1540414
2012-07-02T07:00:00Z,53.155000000,52.350000000,53.155000000,51.890000000,1776682
2012-07-03T07:00:00Z,52.240000000,52.440000000,52.620000000,51.965000000,1090068
2012-07-05T07:00:00Z,52.200000000,52.745000000,53.060000000,52.010000000,1239194
2012-07-06T07:00:00Z,52.095000000,52.785000000,52.945000000,51.930000000,1773340
2012-07-09T07:00:00Z,52.690000000,51.685000000,52.785000000,51.500000000,2056846
2012-07-10T07:00:00Z,51.745000000,51.070000000,52.220000000,50.810000000,1250014
2012-07-11T07:00:00Z,51.080000000,50.440000000,51.100000000,49.915000000,2795854
2012-07-12T07:00:00Z,49.945000000,50.330000000,50.630000000,49.560000000,1505320
2012-07-13T07:00:00Z,50.640000000,51.670000000,51.725000000,50.640000000,2042504
2012-07-16T07:00:00Z,51.450000000,51.065000000,51.694000000,50.800000000,1320160
2012-07-17T07:00:00Z,51.295000000,52.065000000,52.160000000,50.960000000,1810334
2012-07-18T07:00:00Z,51.740000000,52.095000000,52.430000000,51.740000000,1674790
2012-07-19T07:00:00Z,54.625000000,55.980000000,56.090000000,53.425000000,8463848
2012-07-20T07:00:00Z,55.280000000,56.925000000,57.310000000,54.730000000,5984154
2012-07-23T07:00:00Z,55.450000000,55.375000000,56.245000000,55.080000000,4179988
2012-07-24T07:00:00Z,55.515000000,54.280000000,55.515000000,53.820000000,2907946
2012-07-25T07:00:00Z,54.540000000,53.745000000,54.825000000,53.650000000,2652576
2012-07-26T07:00:00Z,54.895000000,54.115000000,54.895000000,53.960000000,2406580
2012-07-27T07:00:00Z,54.500000000,55.210000000,55.340000000,54.395000000,2467222
2012-07-30T07:00:00Z,55.130000000,55.495000000,55.930000000,55.050000000,1442446
2012-07-31T07:00:00Z,55.415000000,54.730000000,55.570000000,54.690000000,2165156
2012-08-01T07:00:00Z,54.965000000,54.030000000,55.545000000,54.030000000,1861128
2012-08-02T07:00:00Z,53.625000000,53.820000000,54.020000000,52.935000000,2126208
2012-08-03T07:00:00Z,54.745000000,54.600000000,54.840000000,54.220000000,2135758
2012-08-06T07:00:00Z,54.555000000,54.950000000,55.270000000,54.415000000,2053666
2012-08-07T07:00:00Z,55.320000000,55.760000000,55.885000000,54.855000000,2094442
2012-08-08T07:00:00Z,55.205000000,55.555000000,55.750000000,54.320000000,1953014
2012-08-09T07:00:00Z,55.375000000,55.685000000,55.934000000,55.225000000,1057310
2012-08-10T07:00:00Z,55.370000000,55.410000000,55.410000000,54.910000000,1301032
2012-08-13T07:00:00Z,55.420000000,55.070000000,55.495000000,54.575000000,919768
2012-08-14T07:00:00Z,55.115000000,54.240000000,55.410000000,54.070000000,1705404
2012-08-15T07:00:00Z,54.155000000,54.715000000,54.775000000,53.980000000,986448
2012-08-16T07:00:00Z,54.880000000,55.020000000,55.145000000,54.425000000,901588
2012-08-17T07:00:00Z,55.280000000,55.125000000,55.325000000,55.025000000,1243650
2012-08-20T07:00:00Z,54.920000000,54.580000000,55.100000000,54.400000000,1397552
2012-08-21T07:00:00Z,54.580000000,53.735000000,54.770000000,53.580000000,1882974
2012-08-22T07:00:00Z,53.450000000,55.525000000,55.535000000,53.430000000,2452446
2012-08-23T07:00:00Z,55.275000000,54.495000000,55.350000000,54.370000000,2025238
2012-08-24T07:00:00Z,54.480000000,54.575000000,54.740000000,54.085000000,1521732
2012-08-27T07:00:00Z,54.750000000,54.690000000,54.905000000,54.280000000,1852640
2012-08-28T07:00:00Z,54.480000000,54.445000000,54.670000000,54.325000000,1355320
2012-08-29T07:00:00Z,54.525000000,54.855000000,54.950000000,54.130000000,1430810
2012-08-30T07:00:00Z,54.620000000,54.245000000,54.785000000,54.145000000,1631954
2012-08-31T07:00:00Z,54.710000000,55.010000000,55.135000000,54.305000000,1298120
2012-09-04T07:00:00Z,54.850000000,54.085000000,54.995000000,53.823000000,1607560
2012-09-05T07:00:00Z,54.200000000,54.385000000,54.485000000,53.717000000,1455144
2012-09-06T07:00:00Z,54.795000000,56.500000000,56.505000000,54.675000000,2597930
2012-09-07T07:00:00Z,56.500000000,56.570000000,56.850000000,55.515000000,2659430
2012-09-10T07:00:00Z,57.365000000,57.895000000,58.395000000,57.175000000,3119832
2012-09-11T07:00:00Z,57.965000000,57.935000000,58.240000000,57.395000000,1966734
2012-09-12T07:00:00Z,58.115000000,57.885000000,58.425000000,57.635000000,2183088
2012-09-13T07:00:00Z,57.980000000,59.290000000,59.819000000,57.900000000,2453886
2012-09-14T07:00:00Z,59.395000000,59.420000000,59.930000000,59.070000000,2532198
2012-09-17T07:00:00Z,59.100000000,59.250000000,59.515000000,58.890000000,1369620
2012-09-18T07:00:00Z,59.250000000,58.725000000,59.250000000,58.400000000,1491098
2012-09-19T07:00:00Z,58.710000000,58.620000000,58.975000000,58.120000000,1683650
2012-09-20T07:00:00Z,58.180000000,59.185000000,59.230000000,58.005000000,2218082
2012-09-21T07:00:00Z,59.645000000,58.795000000,59.650000000,58.690000000,2512900
2012-09-24T07:00:00Z,58.500000000,58.405000000,58.675000000,58.040000000,1231704
2012-09-25T07:00:00Z,58.615000000,57.515000000,58.723000000,57.500000000,1412304
2012-09-26T07:00:00Z,57.525000000,57.300000000,57.900000000,57.040000000,1253398
2012-09-27T07:00:00Z,57.510000000,57.615000000,58.018000000,57.150000000,1011232
2012-09-28T07:00:00Z,57.130000000,57.420000000,57.605000000,56.595000000,1058360
2012-10-01T07:00:00Z,57.640000000,57.775000000,58.155000000,57.370000000,1563196
2012-10-02T07:00:00Z,57.890000000,57.315000000,57.955000000,57.000000000,897070
2012-10-03T07:00:00Z,57.195000000,58.305000000,58.320000000,57.085000000,1887524
2012-10-04T07:00:00Z,58.525000000,58.510000000,58.824000000,58.080000000,1485762
2012-10-05T07:00:00Z,59.110000000,58.970000000,59.205000000,58.515000000,1723736
2012-10-08T07:00:00Z,58.765000000,58.860000000,59.015000000,58.190000000,1269520
2012-10-09T07:00:00Z,58.820000000,57.855000000,58.820000000,57.785000000,1066894
2012-10-10T07:00:00Z,57.550000000,57.680000000,57.985000000,57.205000000,1537640
2012-10-11T07:00:00Z,58.235000000,57.730000000,58.535000000,57.730000000,1022734
2012-10-12T07:00:00Z,57.795000000,57.115000000,58.075000000,56.698000000,1449868
2012-10-15T07:00:00Z,57.185000000,58.070000000,58.125000000,56.880000000,1236812
2012-10-16T07:00:00Z,58.490000000,58.910000000,59.450000000,57.970000000,1788414
2012-10-17T07:00:00Z,59.025000000,59.485000000,60.000000000,58.720000000,2254246
2012-10-18T07:00:00Z,59.435000000,59.545000000,60.000000000,58.800000000,2065438
2012-10-19T07:00:00Z,59.720000000,58.865000000,59.820000000,58.465000000,1844276
2012-10-22T07:00:00Z,58.665000000,58.850000000,59.165000000,58.165000000,768804
2012-10-23T07:00:00Z,57.285000000,57.770000000,58.155000000,56.850000000,1471650
2012-10-24T07:00:00Z,58.150000000,58.585000000,58.865000000,57.970000000,1768676
2012-10-25T07:00:00Z,58.985000000,58.010000000,59.000000000,57.751000000,1274344
2012-10-26T07:00:00Z,58.010000000,58.060000000,58.315000000,57.570000000,1049528
2012-10-31T07:00:00Z,58.220000000,58.540000000,58.740000000,57.975000000,1499338
2012-11-01T07:00:00Z,59.340000000,60.900000000,60.970000000,58.690000000,1877642
2012-11-02T07:00:00Z,61.465000000,59.960000000,64.210000000,59.935000000,1355466
2012-11-05T07:00:00Z,59.920000000,60.890000000,60.945000000,59.635000000,994352
2012-11-06T07:00:00Z,61.040000000,61.595000000,61.875000000,60.860000000,2455060
2012-11-07T07:00:00Z,61.270000000,60.320000000,61.295000000,59.845000000,1317116
2012-11-08T07:00:00Z,60.330000000,58.805000000,60.680000000,58.790000000,1652304
2012-11-09T07:00:00Z,58.685000000,58.690000000,59.275000000,58.385000000,1338488
2012-11-12T07:00:00Z,58.920000000,58.735000000,59.305000000,58.375000000,1865254
2012-11-13T07:00:00Z,58.240000000,58.725000000,59.255000000,58.145000000,1074596
2012-11-14T07:00:00Z,58.915000000,58.155000000,59.060000000,57.995000000,1789618
2012-11-15T07:00:00Z,58.130000000,57.625000000,58.530000000,57.105000000,1507834
2012-11-16T07:00:00Z,57.685000000,57.810000000,57.880000000,56.905000000,1504542
2012-11-19T07:00:00Z,58.640000000,60.025000000,60.263000000,58.640000000,1940532
2012-11-20T07:00:00Z,59.915000000,60.775000000,60.795000000,59.525000000,1949632
2012-11-21T07:00:00Z,60.765000000,60.875000000,60.970000000,60.445000000,1234748
2012-11-23T07:00:00Z,61.260000000,61.685000000,61.725000000,61.035000000,430248
2012-11-26T07:00:00Z,61.260000000,61.505000000,61.600000000,61.080000000,1428680
2012-11-27T07:00:00Z,61.365000000,61.195000000,61.555000000,61.000000000,2635598
2012-11-28T07:00:00Z,60.585000000,60.950000000,61.090000000,59.975000000,2857668
2012-11-29T07:00:00Z,61.205000000,61.320000000,61.550000000,60.700000000,1913022
2012-11-30T07:00:00Z,61.310000000,62.135000000,62.435000000,60.975000000,3125356
2012-12-03T07:00:00Z,62.495000000,60.470000000,62.500000000,60.385000000,3184976
2012-12-04T07:00:00Z,60.500000000,60.155000000,60.919000000,59.700000000,2667144
2012-12-05T07:00:00Z,60.105000000,59.730000000,60.600000000,59.515000000,3033556
2012-12-06T07:00:00Z,59.835000000,61.605000000,61.675000000,59.375000000,2826920
2012-12-07T07:00:00Z,61.275000000,60.685000000,61.673000000,60.060000000,3182968
2012-12-10T07:00:00Z,60.585000000,61.920000000,62.190000000,60.516000000,2216090
2012-12-11T07:00:00Z,62.125000000,62.520000000,62.848000000,61.860000000,2718778
2012-12-12T07:00:00Z,62.880000000,62.275000000,62.880000000,62.100000000,2763218
2012-12-13T07:00:00Z,62.360000000,62.605000000,62.925000000,62.125000000,2962828
2012-12-14T07:00:00Z,64.525000000,64.965000000,66.440000000,64.050000000,6973598
2012-12-17T07:00:00Z,65.280000000,65.100000000,65.900000000,64.360000000,4301836
2012-12-18T07:00:00Z,65.385000000,66.235000000,66.628000000,65.115000000,4133602
2012-12-19T07:00:00Z,66.185000000,65.605000000,66.360000000,65.578000000,2567922
2012-12-20T07:00:00Z,66.005000000,67.195000000,67.250000000,65.945000000,2605266
2012-12-21T07:00:00Z,66.405000000,66.630000000,67.125000000,66.165000000,6763144
2012-12-24T07:00:00Z,66.450000000,67.620000000,67.755000000,66.200000000,1883434
2012-12-26T07:00:00Z,68.100000000,67.370000000,68.110000000,67.360000000,2716218
2012-12-27T07:00:00Z,67.225000000,66.560000000,68.395000000,65.725000000,6768484
2012-12-28T07:00:00Z,66.090000000,66.350000000,66.865000000,65.501000000,5228814
2012-12-31T07:00:00Z,66.145000000,67.675000000,67.945000000,66.070000000,4479376
2012-12-31T07:00:00Z,66.145000000,67.675000000,67.945000000,66.070000000,4479376
2013-01-02T07:00:00Z,69.170000000,69.275000000,70.205000000,68.710000000,6377586
2013-01-03T07:00:00Z,69.345000000,68.875000000,69.485000000,68.590000000,5271544
2013-01-04T07:00:00Z,69.000000000,69.735000000,69.805000000,68.625000000,3902446
2013-01-07T07:00:00Z,69.570000000,69.130000000,69.635000000,68.540000000,5348964
2013-01-08T07:00:00Z,69.145000000,70.115000000,70.240000000,68.100000000,9106926
2013-01-09T07:00:00Z,70.345000000,70.700000000,71.368000000,70.240000000,6973350
2013-01-10T07:00:00Z,71.130000000,70.885000000,71.190000000,69.995000000,6312298
2013-01-11T07:00:00Z,70.915000000,71.050000000,71.435000000,70.460000000,5700230
2013-01-14T07:00:00Z,70.250000000,70.515000000,71.375000000,70.000000000,5870512
2013-01-15T07:00:00Z,69.940000000,70.070000000,70.750000000,69.650000000,4872626
2013-01-16T07:00:00Z,69.720000000,69.565000000,69.845000000,68.500000000,9656588
2013-01-17T07:00:00Z,69.765000000,70.990000000,71.375000000,69.560000000,8565342
2013-01-18T07:00:00Z,70.735000000,71.365000000,71.750000000,68.875000000,11177128
2013-01-22T07:00:00Z,71.395000000,71.385000000,71.870000000,70.520000000,11673686
2013-01-23T07:00:00Z,71.180000000,71.705000000,71.885000000,70.930000000,23592328
2013-01-24T07:00:00Z,71.500000000,71.990000000,73.055000000,71.265000000,20920290
2013-01-25T07:00:00Z,72.500000000,72.105000000,73.994000000,71.335000000,26018218
2013-01-28T07:00:00Z,69.350000000,70.000000000,70.875000000,68.585000000,16386844
2013-01-29T07:00:00Z,70.000000000,70.530000000,70.650000000,69.565000000,10352152
2013-01-30T07:00:00Z,70.395000000,70.115000000,71.453000000,69.880000000,4010318
2013-01-31T07:00:00Z,69.585000000,68.935000000,70.099000000,68.885000000,4835520
2013-02-01T07:00:00Z,69.675000000,70.280000000,70.460000000,68.975000000,20167640
2013-02-04T07:00:00Z,69.870000000,69.470000000,70.145000000,69.180000000,11621872
2013-02-05T07:00:00Z,69.715000000,69.185000000,70.220000000,68.500000000,12342974
2013-02-06T07:00:00Z,68.965000000,69.165000000,69.435000000,68.430000000,9345102
2013-02-07T07:00:00Z,69.385000000,68.985000000,69.500000000,68.016000000,15494602
2013-02-08T07:00:00Z,68.995000000,69.440000000,69.640000000,68.695000000,8719208
2013-02-11T07:00:00Z,69.575000000,69.675000000,69.850000000,69.075000000,8051602
2013-02-12T07:00:00Z,69.195000000,68.225000000,69.195000000,67.726000000,8950390
2013-02-13T07:00:00Z,68.510000000,69.555000000,69.885000000,68.475000000,7626192
2013-02-14T07:00:00Z,69.330000000,69.500000000,69.680000000,68.955000000,4826062
2013-02-15T07:00:00Z,69.890000000,69.695000000,70.035000000,69.250000000,3477408
2013-02-19T07:00:00Z,69.340000000,67.855000000,69.625000000,67.765000000,5937096
2013-02-20T07:00:00Z,67.640000000,65.755000000,67.750000000,65.745000000,5181060
2013-02-21T07:00:00Z,65.325000000,65.040000000,65.325000000,64.100000000,4398228
2013-02-22T07:00:00Z,65.185000000,66.160000000,66.185000000,65.050000000,3289780
2013-02-25T07:00:00Z,66.425000000,65.150000000,66.890000000,65.140000000,3971544
2013-02-26T07:00:00Z,65.315000000,66.340000000,66.530000000,65.315000000,3457126
2013-02-27T07:00:00Z,66.055000000,67.330000000,67.710000000,65.930000000,2088788
2013-02-28T07:00:00Z,67.460000000,67.330000000,67.940000000,67.305000000,2701654
2013-03-01T07:00:00Z,66.820000000,67.405000000,67.710000000,66.356000000,1854386
2013-03-04T07:00:00Z,67.300000000,67.795000000,67.825000000,67.090000000,1575178
2013-03-05T07:00:00Z,68.000000000,68.110000000,68.475000000,67.895000000,1673672
2013-03-06T07:00:00Z,68.280000000,67.725000000,68.455000000,67.380000000,2598468
2013-03-07T07:00:00Z,67.860000000,67.735000000,67.980000000,67.455000000,1932642
2013-03-08T07:00:00Z,68.105000000,68.670000000,68.770000000,67.740000000,2104544
2013-03-11T07:00:00Z,68.455000000,68.890000000,68.980000000,68.455000000,1740720
2013-03-12T07:00:00Z,68.775000000,69.570000000,69.645000000,68.775000000,2597584
2013-03-13T07:00:00Z,69.530000000,70.760000000,70.830000000,69.480000000,2650176
2013-03-14T07:00:00Z,70.900000000,71.115000000,71.615000000,70.805000000,1950388
2013-03-15T07:00:00Z,71.060000000,70.650000000,71.750000000,69.555000000,3185020
2013-03-18T07:00:00Z,69.505000000,70.550000000,70.930000000,69.360000000,1337096
2013-03-19T07:00:00Z,70.845000000,70.435000000,70.855000000,69.772000000,1732012
2013-03-20T07:00:00Z,70.680000000,70.505000000,71.080000000,70.420000000,1729182
2013-03-21T07:00:00Z,69.565000000,68.645000000,70.030000000,68.635000000,2032658
2013-03-22T07:00:00Z,68.495000000,67.985000000,69.120000000,67.800000000,1473980
2013-03-25T07:00:00Z,68.155000000,66.945000000,68.235000000,66.320000000,2310680
2013-03-26T07:00:00Z,67.345000000,67.020000000,67.950000000,66.915000000,2388124
2013-03-27T07:00:00Z,66.535000000,66.710000000,66.848000000,65.976000000,1872896
2013-03-28T07:00:00Z,66.665000000,66.970000000,67.045000000,66.435000000,2106832
2013-04-01T07:00:00Z,66.825000000,67.080000000,67.235000000,66.600000000,3317252
2013-04-02T07:00:00Z,67.380000000,66.845000000,67.495000000,66.595000000,1681862
2013-04-03T07:00:00Z,67.025000000,66.360000000,67.025000000,66.100000000,2736170
2013-04-04T07:00:00Z,66.520000000,66.950000000,67.445000000,66.250000000,1830428
2013-04-05T07:00:00Z,65.865000000,65.865000000,66.375000000,65.315000000,1768510
2013-04-08T07:00:00Z,65.800000000,65.725000000,66.030000000,65.280000000,2031980
2013-04-09T07:00:00Z,65.760000000,66.325000000,66.475000000,65.690000000,2561712
2013-04-10T07:00:00Z,66.555000000,67.330000000,67.440000000,66.410000000,2082072
2013-04-11T07:00:00Z,67.345000000,68.805000000,69.065000000,67.310000000,2173992
2013-04-12T07:00:00Z,68.475000000,68.125000000,68.720000000,67.760000000,1379992
2013-04-15T07:00:00Z,67.585000000,65.720000000,67.730000000,65.695000000,2477380
2013-04-16T07:00:00Z,66.355000000,67.275000000,67.335000000,66.055000000,2622866
2013-04-17T07:00:00Z,66.695000000,66.200000000,66.988000000,65.875000000,2198600
2013-04-18T07:00:00Z,67.830000000,70.325000000,71.000000000,67.830000000,4780864
2013-04-19T07:00:00Z,70.330000000,70.795000000,71.115000000,69.800000000,3607058
2013-04-22T07:00:00Z,70.810000000,71.775000000,72.025000000,70.405000000,2211396
2013-04-23T07:00:00Z,71.975000000,72.400000000,72.440000000,71.560000000,1594178
2013-04-24T07:00:00Z,72.500000000,72.490000000,72.925000000,72.175000000,1783676
2013-04-25T07:00:00Z,73.000000000,73.455000000,74.280000000,72.730000000,1936734
2013-04-26T07:00:00Z,73.380000000,72.465000000,73.425000000,72.125000000,1144632
2013-04-29T07:00:00Z,72.820000000,73.510000000,73.605000000,72.440000000,1112652
2013-04-30T07:00:00Z,73.550000000,73.570000000,73.679000000,72.816000000,1635908
2013-05-01T07:00:00Z,72.910000000,72.600000000,73.545000000,72.555000000,2144338
2013-05-02T07:00:00Z,72.940000000,74.240000000,74.440000000,72.655000000,1647158
2013-05-03T07:00:00Z,75.300000000,76.140000000,76.290000000,75.005000000,2041078
2013-05-06T07:00:00Z,76.065000000,75.880000000,76.065000000,75.305000000,1144236
2013-05-07T07:00:00Z,75.940000000,76.610000000,76.690000000,75.890000000,1017446
2013-05-08T07:00:00Z,76.480000000,77.570000000,77.590000000,76.190000000,1932238
2013-05-09T07:00:00Z,77.330000000,76.960000000,77.565000000,76.790000000,1771852
2013-05-10T07:00:00Z,76.895000000,77.065000000,77.300000000,76.555000000,1082310
2013-05-13T07:00:00Z,76.825000000,76.605000000,76.985000000,76.215000000,763392
2013-05-14T07:00:00Z,76.745000000,78.405000000,78.430000000,76.670000000,1248614
2013-05-15T07:00:00Z,78.030000000,78.235000000,78.925000000,77.787000000,1648458
2013-05-16T07:00:00Z,78.035000000,77.775000000,78.700000000,77.700000000,990944
2013-05-17T07:00:00Z,78.355000000,79.420000000,79.445000000,77.945000000,1146776
2013-05-20T07:00:00Z,79.180000000,78.530000000,79.238000000,77.900000000,1292836
2013-05-21T07:00:00Z,78.770000000,79.470000000,79.715000000,78.510000000,1410294
2013-05-22T07:00:00Z,79.445000000,78.775000000,80.415000000,78.296000000,1292542
2013-05-23T07:00:00Z,77.715000000,78.430000000,78.949000000,77.180000000,1117418
2013-05-24T07:00:00Z,77.820000000,78.415000000,78.715000000,77.165000000,1100440
2013-05-28T07:00:00Z,79.445000000,78.665000000,79.750000000,78.040000000,1137014
2013-05-29T07:00:00Z,78.105000000,78.550000000,78.960000000,77.790000000,767916
2013-05-30T07:00:00Z,78.695000000,78.155000000,78.815000000,77.860000000,809636
2013-05-31T07:00:00Z,77.815000000,76.805000000,78.270000000,76.805000000,1101302
2013-06-03T07:00:00Z,77.235000000,77.570000000,77.645000000,76.100000000,1323392
2013-06-04T07:00:00Z,77.445000000,76.780000000,78.105000000,76.424000000,1131882
2013-06-05T07:00:00Z,76.530000000,74.995000000,76.725000000,74.965000000,1148662
2013-06-06T07:00:00Z,74.575000000,75.635000000,75.790000000,74.520000000,888764
2013-06-07T07:00:00Z,76.545000000,77.460000000,77.670000000,76.260000000,1366936
2013-06-10T07:00:00Z,77.995000000,77.135000000,77.995000000,76.550000000,636452
2013-06-11T07:00:00Z,75.895000000,75.950000000,76.915000000,75.505000000,881196
2013-06-12T07:00:00Z,76.675000000,75.475000000,76.845000000,75.340000000,818594
2013-06-13T07:00:00Z,75.230000000,77.635000000,77.950000000,75.230000000,1655166
2013-06-14T07:00:00Z,77.185000000,76.915000000,77.860000000,76.555000000,919414
2013-06-17T07:00:00Z,77.500000000,78.055000000,78.470000000,77.180000000,1115408
2013-06-18T07:00:00Z,78.020000000,78.285000000,78.375000000,77.555000000,1032370
2013-06-19T07:00:00Z,78.160000000,77.085000000,78.610000000,77.045000000,1001970
2013-06-20T07:00:00Z,76.125000000,75.040000000,76.380000000,74.805000000,2130328
2013-06-21T07:00:00Z,75.955000000,74.450000000,76.020000000,73.815000000,2092416
2013-06-24T07:00:00Z,74.415000000,73.340000000,74.435000000,72.605000000,1538360
2013-06-25T07:00:00Z,74.590000000,73.915000000,75.118000000,73.385000000,1300272
2013-06-26T07:00:00Z,74.345000000,74.500000000,74.980000000,73.450000000,1524442
2013-06-27T07:00:00Z,75.050000000,74.515000000,75.260000000,74.170000000,1559696
2013-06-28T07:00:00Z,73.960000000,73.205000000,74.120000000,73.000000000,4674614
2013-07-01T07:00:00Z,73.525000000,74.220000000,75.095000000,73.280000000,1362814
2013-07-02T07:00:00Z,73.925000000,74.540000000,74.910000000,73.870000000,1403908
2013-07-03T07:00:00Z,73.570000000,74.795000000,74.970000000,72.290000000,738444
2013-07-05T07:00:00Z,75.285000000,76.210000000,76.350000000,75.285000000,1289018
2013-07-08T07:00:00Z,76.650000000,76.615000000,76.825000000,75.655000000,1202970
2013-07-09T07:00:00Z,77.265000000,78.265000000,78.395000000,76.518000000,1715952
2013-07-10T07:00:00Z,78.290000000,78.020000000,78.500000000,77.680000000,1164276
2013-07-11T07:00:00Z,79.560000000,79.015000000,79.755000000,78.565000000,1770924
2013-07-12T07:00:00Z,78.955000000,78.865000000,79.065000000,78.095000000,1584430
2013-07-15T07:00:00Z,78.990000000,78.495000000,79.020000000,78.355000000,850474
2013-07-16T07:00:00Z,78.520000000,77.420000000,78.545000000,77.068000000,1139354
2013-07-17T07:00:00Z,77.820000000,78.430000000,78.465000000,77.690000000,1293868
2013-07-18T07:00:00Z,78.395000000,80.000000000,80.735000000,78.090000000,2736620
2013-07-19T07:00:00Z,80.035000000,79.580000000,80.470000000,79.510000000,1757126
2013-07-22T07:00:00Z,79.505000000,79.865000000,80.565000000,79.458000000,2016838
2013-07-23T07:00:00Z,80.385000000,79.565000000,80.670000000,79.470000000,1342052
2013-07-24T07:00:00Z,79.780000000,78.540000000,79.935000000,78.088000000,1703818
2013-07-25T07:00:00Z,78.545000000,79.365000000,79.395000000,78.470000000,1127432
2013-07-26T07:00:00Z,79.250000000,78.555000000,79.250000000,78.190000000,1044342
2013-07-29T07:00:00Z,79.115000000,80.585000000,80.740000000,78.710000000,1548496
2013-07-30T07:00:00Z,80.545000000,80.525000000,80.820000000,80.000000000,1307032
2013-07-31T07:00:00Z,80.750000000,80.220000000,81.130000000,80.005000000,1263054
2013-08-01T07:00:00Z,78.130000000,81.380000000,82.820000000,78.130000000,965432
2013-08-02T07:00:00Z,81.245000000,81.180000000,81.770000000,80.225000000,999602
2013-08-05T07:00:00Z,80.810000000,80.945000000,81.270000000,80.340000000,1447092
2013-08-06T07:00:00Z,80.785000000,80.710000000,80.823000000,79.770000000,1322354
2013-08-07T07:00:00Z,80.470000000,80.545000000,80.965000000,80.050000000,1053224
2013-08-08T07:00:00Z,81.015000000,80.915000000,81.360000000,80.193000000,1592594
2013-08-09T07:00:00Z,80.735000000,80.845000000,81.363000000,80.405000000,825730
2013-08-12T07:00:00Z,80.510000000,80.670000000,80.955000000,80.136000000,1501202
2013-08-13T07:00:00Z,80.435000000,81.380000000,81.650000000,80.203000000,1327856
2013-08-14T07:00:00Z,81.480000000,81.185000000,81.715000000,80.980000000,1328542
2013-08-15T07:00:00Z,80.500000000,79.385000000,80.500000000,79.145000000,1157340
2013-08-16T07:00:00Z,79.030000000,79.295000000,79.690000000,78.785000000,1377878
2013-08-19T07:00:00Z,79.075000000,78.405000000,79.665000000,78.260000000,1051656
2013-08-20T07:00:00Z,78.475000000,79.485000000,80.026000000,78.405000000,1614844
2013-08-21T07:00:00Z,79.405000000,79.555000000,80.280000000,78.899000000,887324
2013-08-22T07:00:00Z,79.715000000,80.075000000,80.240000000,78.930000000,660568
2013-08-23T07:00:00Z,80.230000000,81.120000000,81.210000000,79.345000000,1403426
2013-08-26T07:00:00Z,81.320000000,80.135000000,81.425000000,79.880000000,860244
2013-08-27T07:00:00Z,79.140000000,78.880000000,79.500000000,78.500000000,1075414
2013-08-28T07:00:00Z,78.470000000,77.880000000,78.850000000,77.800000000,1638304
2013-08-29T07:00:00Z,77.645000000,78.095000000,78.620000000,77.635000000,1412430
2013-08-30T07:00:00Z,78.270000000,78.105000000,78.625000000,77.850000000,748464
2013-09-03T07:00:00Z,79.270000000,78.605000000,79.960000000,78.235000000,992222
2013-09-04T07:00:00Z,78.450000000,79.470000000,79.715000000,78.175000000,1130590
2013-09-05T07:00:00Z,79.425000000,80.285000000,80.670000000,79.170000000,639016
2013-09-06T07:00:00Z,80.490000000,79.625000000,80.590000000,78.790000000,1290288
2013-09-09T07:00:00Z,79.770000000,80.820000000,80.980000000,79.770000000,834684
2013-09-10T07:00:00Z,81.415000000,81.855000000,81.855000000,81.105000000,1240114
2013-09-11T07:00:00Z,81.790000000,82.210000000,82.355000000,81.570000000,805994
2013-09-12T07:00:00Z,82.095000000,81.435000000,82.760000000,81.155000000,891288
2013-09-13T07:00:00Z,81.655000000,81.220000000,81.990000000,81.085000000,913776
2013-09-16T07:00:00Z,82.600000000,82.600000000,82.945000000,82.175000000,859924
2013-09-17T07:00:00Z,82.600000000,82.680000000,82.765000000,82.120000000,878444
2013-09-18T07:00:00Z,82.325000000,83.905000000,83.990000000,81.810000000,1110410
2013-09-19T07:00:00Z,83.895000000,83.995000000,84.485000000,83.600000000,920532
2013-09-20T07:00:00Z,83.995000000,83.140000000,86.105000000,83.080000000,1416730
2013-09-23T07:00:00Z,83.080000000,81.710000000,83.080000000,81.665000000,1876356
2013-09-24T07:00:00Z,81.840000000,81.735000000,82.590000000,81.605000000,1591172
2013-09-25T07:00:00Z,81.970000000,82.320000000,82.670000000,81.700000000,1780428
2013-09-26T07:00:00Z,82.550000000,83.325000000,83.480000000,82.395000000,913698
2013-09-27T07:00:00Z,82.720000000,82.635000000,83.155000000,82.440000000,1311222
2013-09-30T07:00:00Z,81.890000000,83.530000000,83.565000000,81.760000000,1505676
2013-10-01T07:00:00Z,83.565000000,83.405000000,83.905000000,83.050000000,1186286
2013-10-02T07:00:00Z,82.765000000,83.320000000,83.320000000,82.430000000,1333740
2013-10-03T07:00:00Z,83.095000000,83.245000000,83.415000000,82.530000000,1540818
2013-10-04T07:00:00Z,83.070000000,85.450000000,85.500000000,82.985000000,1846124
2013-10-07T07:00:00Z,84.385000000,83.955000000,85.100000000,83.756000000,1842948
2013-10-08T07:00:00Z,83.955000000,81.405000000,84.005000000,81.350000000,1740858
2013-10-09T07:00:00Z,81.490000000,81.240000000,82.110000000,80.380000000,2231058
2013-10-10T07:00:00Z,82.350000000,82.365000000,82.975000000,81.900000000,2301382
2013-10-11T07:00:00Z,82.435000000,83.375000000,83.395000000,82.283000000,1818626
2013-10-14T07:00:00Z,82.730000000,83.065000000,83.250000000,82.340000000,1238192
2013-10-15T07:00:00Z,83.060000000,82.740000000,83.315000000,82.444000000,911614
2013-10-16T07:00:00Z,83.600000000,83.110000000,84.005000000,82.780000000,1922244
2013-10-17T07:00:00Z,84.875000000,87.235000000,87.370000000,83.620000000,3069696
2013-10-18T07:00:00Z,87.680000000,87.885000000,88.290000000,86.775000000,2707756
2013-10-21T07:00:00Z,87.650000000,88.305000000,88.510000000,87.225000000,1685386
2013-10-22T07:00:00Z,88.925000000,90.060000000,90.365000000,88.255000000,1819106
2013-10-23T07:00:00Z,90.140000000,89.225000000,90.220000000,89.160000000,1435274
2013-10-24T07:00:00Z,89.375000000,89.730000000,89.805000000,88.975000000,723528
2013-10-25T07:00:00Z,89.730000000,90.960000000,90.975000000,89.545000000,1140250
2013-10-28T07:00:00Z,90.965000000,90.445000000,91.035000000,90.165000000,1001638
2013-10-29T07:00:00Z,90.600000000,92.755000000,92.840000000,90.600000000,1654658
2013-10-30T07:00:00Z,93.140000000,90.830000000,93.640000000,89.565000000,2376840
2013-10-31T07:00:00Z,90.870000000,91.290000000,92.283000000,90.775000000,1835324
2013-11-01T07:00:00Z,91.400000000,91.375000000,91.695000000,90.855000000,1466542
2013-11-04T07:00:00Z,91.750000000,91.730000000,91.800000000,90.835000000,1215314
2013-11-05T07:00:00Z,91.470000000,91.660000000,92.230000000,90.805000000,1102768
2013-11-06T07:00:00Z,91.170000000,91.400000000,92.420000000,91.170000000,1726654
2013-11-07T07:00:00Z,91.645000000,89.820000000,92.160000000,89.676000000,1768422
2013-11-08T07:00:00Z,90.000000000,90.785000000,90.895000000,89.690000000,2207188
2013-11-11T07:00:00Z,90.865000000,91.080000000,91.575000000,90.790000000,1497126
2013-11-12T07:00:00Z,91.090000000,91.255000000,91.495000000,90.688000000,1230450
2013-11-13T07:00:00Z,90.840000000,92.310000000,92.450000000,90.785000000,1962024
2013-11-14T07:00:00Z,92.500000000,92.790000000,92.804000000,91.860000000,1034386
2013-11-15T07:00:00Z,93.190000000,92.450000000,93.445000000,92.335000000,1367726
2013-11-18T07:00:00Z,92.485000000,92.325000000,92.768000000,92.055000000,924860
2013-11-19T07:00:00Z,92.115000000,92.380000000,92.750000000,92.025000000,625616
2013-11-20T07:00:00Z,92.325000000,91.100000000,92.350000000,90.900000000,1337412
2013-11-21T07:00:00Z,91.655000000,91.660000000,91.960000000,91.225000000,1332940
2013-11-22T07:00:00Z,91.795000000,91.890000000,92.115000000,91.275000000,1349246
2013-11-25T07:00:00Z,91.910000000,92.095000000,92.770000000,91.910000000,974366
2013-11-26T07:00:00Z,92.090000000,92.565000000,92.995000000,91.880000000,966430
2013-11-27T07:00:00Z,92.600000000,92.270000000,92.775000000,92.030000000,909492
2013-11-29T07:00:00Z,92.500000000,92.030000000,92.785000000,91.875000000,394450
2013-12-02T07:00:00Z,92.170000000,91.830000000,92.765000000,91.675000000,1018396
2013-12-03T07:00:00Z,91.160000000,90.830000000,91.615000000,90.160000000,1342756
2013-12-04T07:00:00Z,90.855000000,91.475000000,92.300000000,90.855000000,1929670
2013-12-05T07:00:00Z,91.000000000,90.890000000,91.645000000,90.425000000,1155960
2013-12-06T07:00:00Z,92.500000000,93.920000000,93.980000000,91.480000000,1894638
2013-12-09T07:00:00Z,94.095000000,93.355000000,94.500000000,93.015000000,1416966
2013-12-10T07:00:00Z,93.355000000,93.675000000,94.000000000,92.953000000,1103534
2013-12-11T07:00:00Z,93.545000000,91.175000000,93.615000000,90.745000000,2174502
2013-12-12T07:00:00Z,91.110000000,91.960000000,92.295000000,91.025000000,1797856
2013-12-13T07:00:00Z,91.965000000,91.455000000,92.570000000,91.145000000,1353462
2013-12-16T07:00:00Z,91.455000000,91.200000000,92.150000000,90.750000000,1908058
2013-12-17T07:00:00Z,91.605000000,91.805000000,92.000000000,90.955000000,1786772
2013-12-18T07:00:00Z,91.880000000,92.615000000,92.815000000,90.450000000,1919094
2013-12-19T07:00:00Z,92.430000000,92.650000000,92.905000000,92.175000000,1435112
2013-12-20T07:00:00Z,92.510000000,93.310000000,93.675000000,92.385000000,4534470
2013-12-23T07:00:00Z,93.700000000,92.750000000,93.710000000,92.540000000,1373540
2013-12-24T07:00:00Z,92.805000000,93.790000000,93.800000000,92.805000000,373038
2013-12-26T07:00:00Z,93.920000000,94.040000000,94.185000000,93.625000000,609764
2013-12-27T07:00:00Z,94.290000000,93.890000000,94.290000000,93.625000000,782986
2013-12-30T07:00:00Z,93.910000000,94.235000000,94.415000000,93.550000000,1015140
2013-12-31T07:00:00Z,94.385000000,94.830000000,95.035000000,94.130000000,1038854
2013-12-31T07:00:00Z,94.385000000,94.830000000,95.035000000,94.130000000,1038854
2014-01-02T07:00:00Z,94.750000000,94.470000000,95.145000000,94.265000000,1368442
2014-01-03T07:00:00Z,94.700000000,94.705000000,95.050000000,94.440000000,814210
2014-01-06T07:00:00Z,94.815000000,93.760000000,94.995000000,93.465000000,1564888
2014-01-07T07:00:00Z,93.800000000,94.140000000,94.570000000,93.010000000,2334806
2014-01-08T07:00:00Z,94.275000000,94.735000000,95.098000000,93.705000000,2006506
2014-01-09T07:00:00Z,94.855000000,95.065000000,95.615000000,94.625000000,2365968
2014-01-10T07:00:00Z,95.285000000,95.290000000,95.770000000,94.815000000,2090224
2014-01-13T07:00:00Z,94.965000000,93.880000000,95.675000000,93.595000000,2608954
2014-01-14T07:00:00Z,94.285000000,95.445000000,95.505000000,93.785000000,1919416
2014-01-15T07:00:00Z,95.635000000,95.350000000,95.775000000,95.215000000,2139978
2014-01-16T07:00:00Z,91.285000000,93.835000000,94.947000000,91.285000000,3294232
2014-01-17T07:00:00Z,94.250000000,94.740000000,96.115000000,94.250000000,3656372
2014-01-21T07:00:00Z,95.165000000,95.000000000,95.770000000,94.555000000,2339614
2014-01-22T07:00:00Z,95.075000000,93.580000000,95.345000000,93.295000000,2843852
2014-01-23T07:00:00Z,93.355000000,93.445000000,94.020000000,92.885000000,2456858
2014-01-24T07:00:00Z,92.615000000,90.800000000,92.850000000,90.795000000,2485314
2014-01-27T07:00:00Z,91.000000000,91.595000000,92.245000000,90.215000000,2780934
2014-01-28T07:00:00Z,91.545000000,91.215000000,92.330000000,90.859000000,2033198
2014-01-29T07:00:00Z,91.025000000,91.600000000,92.435000000,90.830000000,1590910
2014-01-30T07:00:00Z,91.850000000,92.335000000,92.825000000,91.435000000,1190058
2014-01-31T07:00:00Z,91.105000000,91.180000000,92.250000000,90.715000000,2721166
2014-02-03T07:00:00Z,91.255000000,88.435000000,91.665000000,88.335000000,2567098
2014-02-04T07:00:00Z,88.865000000,88.620000000,89.720000000,88.397000000,1938010
2014-02-05T07:00:00Z,87.945000000,88.610000000,88.815000000,86.913000000,2258642
2014-02-06T07:00:00Z,88.715000000,89.460000000,89.655000000,88.412000000,1659072
2014-02-07T07:00:00Z,90.300000000,91.270000000,91.275000000,90.250000000,1630078
2014-02-10T07:00:00Z,91.065000000,91.965000000,92.455000000,90.865000000,2010686
2014-02-11T07:00:00Z,92.205000000,92.580000000,93.310000000,91.755000000,1994692
2014-02-12T07:00:00Z,93.015000000,92.880000000,93.535000000,92.625000000,1361850
2014-02-13T07:00:00Z,92.500000000,93.615000000,93.920000000,92.080000000,1374444
2014-02-14T07:00:00Z,93.615000000,94.450000000,94.740000000,93.548000000,1424170
2014-02-18T07:00:00Z,94.230000000,93.295000000,94.250000000,93.110000000,2619898
2014-02-19T07:00:00Z,92.825000000,93.530000000,94.365000000,92.795000000,1718042
2014-02-20T07:00:00Z,93.500000000,94.375000000,94.440000000,93.045000000,1690740
2014-02-21T07:00:00Z,94.385000000,94.935000000,95.403000000,94.350000000,2260026
2014-02-24T07:00:00Z,94.745000000,94.260000000,95.495000000,94.250000000,1695460
2014-02-25T07:00:00Z,94.155000000,95.385000000,96.000000000,94.150000000,1679166
2014-02-26T07:00:00Z,95.200000000,96.565000000,97.060000000,95.125000000,1781238
2014-02-27T07:00:00Z,96.400000000,96.845000000,97.335000000,95.600000000,1586136
2014-02-28T07:00:00Z,97.020000000,98.910000000,99.075000000,96.875000000,2880670
2014-03-03T07:00:00Z,96.615000000,98.530000000,99.170000000,96.615000000,1615348
2014-03-04T07:00:00Z,99.875000000,100.095000000,100.205000000,99.340000000,1354068
2014-03-05T07:00:00Z,100.000000000,99.770000000,100.479000000,99.555000000,1194204
2014-03-06T07:00:00Z,99.880000000,100.070000000,100.645000000,99.723000000,979136
2014-03-07T07:00:00Z,100.170000000,100.035000000,100.620000000,99.620000000,1540050
2014-03-10T07:00:00Z,99.660000000,100.150000000,100.415000000,99.320000000,979180
2014-03-11T07:00:00Z,100.500000000,98.755000000,100.500000000,98.725000000,1772036
2014-03-12T07:00:00Z,98.605000000,98.605000000,99.013000000,98.100000000,1605502
2014-03-13T07:00:00Z,99.115000000,97.455000000,99.400000000,97.255000000,1022386
2014-03-14T07:00:00Z,97.295000000,97.290000000,98.060000000,97.126000000,1213960
2014-03-17T07:00:00Z,97.595000000,97.980000000,98.595000000,97.371000000,1668824
2014-03-18T07:00:00Z,98.235000000,98.980000000,99.405000000,98.220000000,1223136
2014-03-19T07:00:00Z,99.445000000,97.580000000,99.610000000,97.225000000,1495186
2014-03-20T07:00:00Z,97.240000000,97.370000000,98.065000000,97.005000000,1833742
2014-03-21T07:00:00Z,98.235000000,97.560000000,99.070000000,97.270000000,3024786
2014-03-24T07:00:00Z,98.050000000,96.605000000,98.200000000,96.125000000,1008728
2014-03-25T07:00:00Z,97.070000000,96.435000000,97.545000000,96.205000000,1555466
2014-03-26T07:00:00Z,96.705000000,95.205000000,97.000000000,95.205000000,1492414
2014-03-27T07:00:00Z,95.215000000,94.765000000,95.480000000,94.017000000,1202978
2014-03-28T07:00:00Z,95.015000000,95.405000000,95.855000000,94.705000000,1012728
2014-03-31T07:00:00Z,96.360000000,96.730000000,97.490000000,96.005000000,1627780
2014-04-01T07:00:00Z,97.540000000,98.320000000,98.360000000,96.690000000,1093652
2014-04-02T07:00:00Z,98.085000000,98.630000000,98.995000000,97.730000000,1458230
2014-04-03T07:00:00Z,98.625000000,98.685000000,100.025000000,98.078000000,1224566
2014-04-04T07:00:00Z,100.235000000,98.880000000,100.795000000,98.355000000,2836316
2014-04-07T07:00:00Z,98.635000000,96.535000000,98.868000000,96.145000000,2326994
2014-04-08T07:00:00Z,96.440000000,96.250000000,97.065000000,95.150000000,1858608
2014-04-09T07:00:00Z,96.345000000,97.845000000,97.985000000,95.855000000,1432086
2014-04-10T07:00:00Z,97.990000000,94.980000000,98.096000000,94.945000000,1846940
2014-04-11T07:00:00Z,94.700000000,93.910000000,95.385000000,93.815000000,1373442
2014-04-14T07:00:00Z,94.580000000,94.280000000,94.850000000,93.570000000,1304142
2014-04-15T07:00:00Z,94.320000000,94.265000000,94.578000000,92.590000000,1875386
2014-04-16T07:00:00Z,95.000000000,95.815000000,95.965000000,94.245000000,2034346
2014-04-17T07:00:00Z,99.995000000,99.730000000,100.000000000,98.240000000,3588108
2014-04-21T07:00:00Z,99.050000000,98.270000000,99.710000000,98.195000000,2522990
2014-04-22T07:00:00Z,98.435000000,98.180000000,98.995000000,98.140000000,1777904
2014-04-23T07:00:00Z,98.330000000,98.150000000,99.060000000,97.964000000,1543562
2014-04-24T07:00:00Z,98.315000000,97.255000000,98.470000000,97.135000000,1536786
2014-04-25T07:00:00Z,96.935000000,96.490000000,97.150000000,95.880000000,1429058
2014-04-28T07:00:00Z,96.885000000,95.735000000,97.285000000,95.035000000,1583838
2014-04-29T07:00:00Z,96.175000000,96.500000000,96.725000000,95.592000000,987392
2014-04-30T07:00:00Z,96.145000000,96.810000000,97.000000000,96.130000000,1120086
2014-05-01T07:00:00Z,96.575000000,96.320000000,97.105000000,96.125000000,789074
2014-05-02T07:00:00Z,96.205000000,97.590000000,97.785000000,96.090000000,1516208
2014-05-05T07:00:00Z,97.430000000,97.945000000,98.105000000,96.793000000,888036
2014-05-06T07:00:00Z,97.365000000,97.735000000,98.245000000,96.505000000,1240540
2014-05-07T07:00:00Z,98.160000000,99.370000000,99.450000000,97.500000000,1619798
2014-05-08T07:00:00Z,98.810000000,98.140000000,99.440000000,97.485000000,1200822
2014-05-09T07:00:00Z,98.125000000,98.310000000,98.420000000,97.405000000,1004986
2014-05-12T07:00:00Z,98.915000000,99.705000000,99.825000000,98.360000000,688840
2014-05-13T07:00:00Z,99.650000000,98.865000000,99.750000000,98.780000000,950068
2014-05-14T07:00:00Z,98.795000000,98.280000000,99.205000000,98.165000000,866178
2014-05-15T07:00:00Z,98.150000000,97.315000000,98.225000000,96.500000000,933714
2014-05-16T07:00:00Z,97.415000000,97.680000000,97.790000000,96.480000000,1471306
2014-05-19T07:00:00Z,97.965000000,98.020000000,99.234000000,97.678000000,986330
2014-05-20T07:00:00Z,98.140000000,97.845000000,98.620000000,97.760000000,1540442
2014-05-21T07:00:00Z,98.010000000,98.585000000,98.946000000,97.860000000,1186328
2014-05-22T07:00:00Z,98.505000000,98.175000000,99.020000000,98.150000000,691354
2014-05-23T07:00:00Z,98.135000000,99.430000000,99.515000000,98.135000000,605160
2014-05-27T07:00:00Z,99.750000000,99.060000000,99.855000000,98.915000000,1357730
2014-05-28T07:00:00Z,99.250000000,100.125000000,100.460000000,98.975000000,1453010
2014-05-29T07:00:00Z,100.215000000,100.500000000,100.500000000,99.009000000,1044522
2014-05-30T07:00:00Z,100.465000000,100.805000000,101.440000000,100.070000000,1078052
2014-06-02T07:00:00Z,100.905000000,101.165000000,101.525000000,100.480000000,615454
2014-06-03T07:00:00Z,100.705000000,100.860000000,101.150000000,100.465000000,832148
2014-06-04T07:00:00Z,100.815000000,101.930000000,102.375000000,100.035000000,1573510
2014-06-05T07:00:00Z,101.790000000,101.575000000,101.895000000,100.550000000,986216
2014-06-06T07:00:00Z,102.120000000,102.465000000,102.900000000,102.005000000,873764
2014-06-09T07:00:00Z,102.315000000,102.555000000,102.825000000,102.180000000,840382
2014-06-10T07:00:00Z,102.200000000,102.900000000,102.945000000,101.630000000,834482
2014-06-11T07:00:00Z,102.250000000,102.800000000,102.960000000,102.146000000,763360
2014-06-12T07:00:00Z,102.685000000,101.790000000,102.855000000,101.675000000,1284026
2014-06-13T07:00:00Z,101.915000000,102.135000000,102.375000000,101.605000000,504108
2014-06-16T07:00:00Z,101.875000000,101.510000000,102.125000000,100.905000000,860912
2014-06-17T07:00:00Z,101.260000000,101.255000000,102.060000000,101.022000000,725668
2014-06-18T07:00:00Z,101.125000000,101.795000000,102.000000000,100.635000000,1122874
2014-06-19T07:00:00Z,101.705000000,101.610000000,102.025000000,101.488000000,850130
2014-06-20T07:00:00Z,101.915000000,102.285000000,102.730000000,101.640000000,1507016
2014-06-23T07:00:00Z,102.440000000,102.185000000,102.535000000,101.850000000,599898
2014-06-24T07:00:00Z,101.800000000,101.515000000,102.745000000,101.260000000,1050830
2014-06-25T07:00:00Z,101.710000000,102.235000000,102.923000000,101.710000000,1229450
2014-06-26T07:00:00Z,102.365000000,101.290000000,102.385000000,100.955000000,955292
2014-06-27T07:00:00Z,100.805000000,102.025000000,102.100000000,100.800000000,1474046
2014-06-30T07:00:00Z,105.965000000,105.075000000,106.505000000,104.300000000,2919026
2014-07-01T07:00:00Z,105.110000000,104.430000000,105.495000000,104.415000000,1358588
2014-07-02T07:00:00Z,104.285000000,104.155000000,104.740000000,103.970000000,925572
2014-07-03T07:00:00Z,104.345000000,105.080000000,105.180000000,104.190000000,577196
2014-07-07T07:00:00Z,104.500000000,104.190000000,104.530000000,103.655000000,1243912
2014-07-08T07:00:00Z,103.950000000,103.400000000,104.430000000,103.345000000,960070
2014-07-09T07:00:00Z,103.900000000,103.910000000,104.050000000,103.190000000,849340
2014-07-10T07:00:00Z,102.825000000,103.695000000,103.905000000,102.500000000,1188096
2014-07-11T07:00:00Z,103.520000000,104.015000000,104.100000000,102.895000000,701112
2014-07-14T07:00:00Z,104.245000000,103.995000000,104.470000000,103.955000000,631270
2014-07-15T07:00:00Z,104.360000000,102.780000000,104.745000000,102.690000000,1512424
2014-07-16T07:00:00Z,103.375000000,102.895000000,103.595000000,102.475000000,2035862
2014-07-17T07:00:00Z,102.510000000,103.850000000,104.875000000,102.510000000,1891732
2014-07-18T07:00:00Z,104.100000000,104.775000000,105.250000000,103.980000000,1397996
2014-07-21T07:00:00Z,104.295000000,104.375000000,104.905000000,104.110000000,1377630
2014-07-22T07:00:00Z,104.640000000,105.055000000,105.545000000,104.475000000,1163096
2014-07-23T07:00:00Z,105.085000000,105.155000000,105.830000000,104.865000000,1484924
2014-07-24T07:00:00Z,105.000000000,105.010000000,105.660000000,104.710000000,914544
2014-07-25T07:00:00Z,105.000000000,104.435000000,105.250000000,104.265000000,629478
2014-07-28T07:00:00Z,104.640000000,104.335000000,104.820000000,103.775000000,959992
2014-07-29T07:00:00Z,104.250000000,102.495000000,104.285000000,102.455000000,1429730
2014-07-30T07:00:00Z,102.625000000,102.215000000,103.335000000,101.800000000,1270480
2014-07-31T07:00:00Z,101.910000000,99.180000000,101.910000000,99.170000000,1587234
2014-08-01T07:00:00Z,98.490000000,99.195000000,99.620000000,98.250000000,1409110
2014-08-04T07:00:00Z,99.055000000,100.310000000,100.495000000,99.055000000,990990
2014-08-05T07:00:00Z,99.630000000,99.105000000,100.348000000,98.840000000,1059388
2014-08-06T07:00:00Z,98.950000000,99.445000000,99.905000000,98.815000000,1186538
2014-08-07T07:00:00Z,99.815000000,98.660000000,100.000000000,98.500000000,1035608
2014-08-08T07:00:00Z,98.895000000,100.110000000,100.190000000,98.510000000,763322
2014-08-11T07:00:00Z,100.325000000,99.590000000,100.555000000,99.580000000,753764
2014-08-12T07:00:00Z,99.675000000,99.765000000,99.995000000,99.235000000,557820
2014-08-13T07:00:00Z,100.360000000,101.005000000,101.055000000,99.600000000,815576
2014-08-14T07:00:00Z,100.775000000,100.785000000,101.050000000,100.460000000,867494
2014-08-15T07:00:00Z,101.030000000,101.135000000,101.885000000,100.435000000,882340
2014-08-18T07:00:00Z,101.150000000,101.885000000,101.965000000,101.110000000,974512
2014-08-19T07:00:00Z,102.050000000,102.315000000,102.645000000,101.911000000,814518
2014-08-20T07:00:00Z,102.000000000,102.040000000,102.370000000,101.595000000,939810
2014-08-21T07:00:00Z,102.350000000,102.540000000,103.000000000,102.040000000,928904
2014-08-22T07:00:00Z,102.550000000,102.275000000,102.725000000,102.215000000,644878
2014-08-25T07:00:00Z,102.555000000,103.115000000,103.180000000,102.460000000,921004
2014-08-26T07:00:00Z,103.425000000,103.230000000,103.425000000,102.775000000,871602
2014-08-27T07:00:00Z,103.055000000,102.620000000,103.325000000,102.285000000,859020
2014-08-28T07:00:00Z,102.345000000,102.720000000,103.060000000,102.181000000,758012
2014-08-29T07:00:00Z,102.970000000,102.930000000,103.100000000,102.605000000,777086
2014-09-02T07:00:00Z,103.195000000,102.595000000,103.270000000,102.285000000,858036
2014-09-03T07:00:00Z,102.865000000,101.765000000,103.060000000,101.650000000,1174460
2014-09-04T07:00:00Z,101.915000000,101.810000000,102.505000000,101.610000000,798942
2014-09-05T07:00:00Z,101.875000000,101.980000000,102.005000000,101.475000000,1059268
2014-09-08T07:00:00Z,101.855000000,101.960000000,102.685000000,101.616000000,656038
2014-09-09T07:00:00Z,102.060000000,100.730000000,102.145000000,100.553000000,836774
2014-09-10T07:00:00Z,100.590000000,101.230000000,101.325000000,100.060000000,804276
2014-09-11T07:00:00Z,100.495000000,100.710000000,101.065000000,100.225000000,900712
2014-09-12T07:00:00Z,100.660000000,99.840000000,100.891000000,99.475000000,949746
2014-09-15T07:00:00Z,99.880000000,99.855000000,100.193000000,99.242000000,992602
2014-09-16T07:00:00Z,99.690000000,100.260000000,100.935000000,99.265000000,1623634
2014-09-17T07:00:00Z,100.730000000,100.915000000,101.450000000,100.415000000,1358514
2014-09-18T07:00:00Z,101.105000000,101.580000000,102.018000000,100.945000000,1057584
2014-09-19T07:00:00Z,101.980000000,101.405000000,102.580000000,101.390000000,1459036
2014-09-22T07:00:00Z,101.480000000,99.840000000,101.730000000,99.760000000,1356966
2014-09-23T07:00:00Z,99.620000000,99.140000000,99.965000000,99.045000000,1344200
2014-09-24T07:00:00Z,99.350000000,100.270000000,100.415000000,99.240000000,1175508
2014-09-25T07:00:00Z,99.695000000,98.705000000,99.810000000,98.705000000,1002538
2014-09-26T07:00:00Z,98.560000000,99.225000000,99.350000000,98.500000000,766840
2014-09-29T07:00:00Z,98.640000000,99.730000000,99.945000000,98.363000000,1099392
2014-09-30T07:00:00Z,99.540000000,98.370000000,99.690000000,98.190000000,1598744
2014-10-01T07:00:00Z,98.250000000,95.585000000,98.250000000,94.835000000,3028990
2014-10-02T07:00:00Z,95.435000000,95.585000000,95.950000000,93.945000000,1724846
2014-10-03T07:00:00Z,96.015000000,95.925000000,96.830000000,95.365000000,1442696
2014-10-06T07:00:00Z,96.770000000,95.635000000,96.770000000,95.280000000,939324
2014-10-07T07:00:00Z,95.195000000,93.210000000,95.195000000,93.165000000,2348094
2014-10-08T07:00:00Z,93.225000000,94.765000000,94.880000000,92.540000000,2850160
2014-10-09T07:00:00Z,94.995000000,93.015000000,95.130000000,92.805000000,2204986
2014-10-10T07:00:00Z,92.890000000,91.775000000,93.705000000,91.730000000,2003946
2014-10-13T07:00:00Z,91.645000000,88.295000000,91.995000000,88.090000000,2501064
2014-10-14T07:00:00Z,88.560000000,88.790000000,89.980000000,87.710000000,2546056
2014-10-15T07:00:00Z,87.685000000,90.250000000,90.570000000,86.507000000,3388842
2014-10-16T07:00:00Z,86.950000000,90.915000000,91.750000000,85.780000000,4098508
2014-10-17T07:00:00Z,92.320000000,93.625000000,94.185000000,91.825000000,3454772
2014-10-20T07:00:00Z,93.890000000,95.590000000,95.635000000,93.385000000,2413438
2014-10-21T07:00:00Z,95.975000000,98.020000000,98.138000000,95.975000000,2398810
2014-10-22T07:00:00Z,98.630000000,96.855000000,99.250000000,96.650000000,2937430
2014-10-23T07:00:00Z,97.985000000,97.450000000,98.285000000,97.055000000,1712038
2014-10-24T07:00:00Z,97.430000000,97.925000000,98.055000000,96.310000000,1614978
2014-10-27T07:00:00Z,96.580000000,96.300000000,96.920000000,95.600000000,2100284
2014-10-28T07:00:00Z,97.385000000,97.695000000,98.430000000,96.980000000,2245822
2014-10-29T07:00:00Z,97.505000000,96.025000000,97.714000000,95.390000000,3746720
2014-10-30T07:00:00Z,95.670000000,96.175000000,96.720000000,95.390000000,1368104
2014-10-31T07:00:00Z,97.395000000,101.845000000,102.250000000,96.775000000,5398172
2014-11-03T07:00:00Z,102.025000000,100.185000000,102.392000000,99.940000000,2409226
2014-11-04T07:00:00Z,100.125000000,99.235000000,100.395000000,98.635000000,1712600
2014-11-05T07:00:00Z,100.210000000,102.625000000,102.730000000,99.825000000,2963360
2014-11-06T07:00:00Z,102.500000000,103.045000000,103.130000000,101.580000000,1990214
2014-11-07T07:00:00Z,101.530000000,103.450000000,103.745000000,101.530000000,1819388
2014-11-10T07:00:00Z,103.285000000,103.135000000,103.665000000,102.670000000,1232066
2014-11-11T07:00:00Z,103.125000000,102.630000000,103.505000000,102.355000000,1409692
2014-11-12T07:00:00Z,102.620000000,101.950000000,102.797000000,101.580000000,2076566
2014-11-13T07:00:00Z,102.115000000,102.615000000,103.495000000,101.505000000,1979978
2014-11-14T07:00:00Z,102.555000000,101.950000000,103.175000000,101.736000000,1606442
2014-11-17T07:00:00Z,102.000000000,102.665000000,103.185000000,101.705000000,1093220
2014-11-18T07:00:00Z,102.475000000,104.250000000,104.375000000,102.175000000,1803044
2014-11-19T07:00:00Z,104.345000000,105.330000000,105.540000000,104.010000000,2718654
2014-11-20T07:00:00Z,104.920000000,106.330000000,106.440000000,104.805000000,1405770
2014-11-21T07:00:00Z,107.520000000,107.675000000,108.865000000,106.850000000,2580772
2014-11-24T07:00:00Z,107.800000000,107.785000000,108.270000000,107.225000000,2368002
2014-11-25T07:00:00Z,107.590000000,107.700000000,108.720000000,107.590000000,1363974
2014-11-26T07:00:00Z,107.575000000,108.475000000,108.565000000,107.275000000,909228
2014-11-28T07:00:00Z,109.150000000,109.410000000,109.770000000,108.240000000,1286352
2014-12-01T07:00:00Z,108.730000000,109.935000000,110.390000000,108.393000000,3195820
2014-12-02T07:00:00Z,110.605000000,109.565000000,111.120000000,108.973000000,1815244
2014-12-03T07:00:00Z,109.800000000,111.630000000,111.815000000,109.565000000,1591502
2014-12-04T07:00:00Z,111.555000000,111.855000000,112.583000000,111.230000000,2052848
2014-12-05T07:00:00Z,111.950000000,111.425000000,112.725000000,111.225000000,1528080
2014-12-08T07:00:00Z,111.200000000,111.420000000,111.975000000,110.835000000,1805162
2014-12-09T07:00:00Z,110.505000000,112.845000000,112.895000000,110.505000000,1781290
2014-12-10T07:00:00Z,112.805000000,110.425000000,112.805000000,110.240000000,1529816
2014-12-11T07:00:00Z,110.430000000,111.300000000,112.155000000,110.235000000,1499196
2014-12-12T07:00:00Z,110.820000000,109.910000000,111.205000000,109.880000000,2741908
2014-12-15T07:00:00Z,110.510000000,109.055000000,111.235000000,108.115000000,2578072
2014-12-16T07:00:00Z,108.145000000,108.330000000,110.665000000,108.020000000,1946446
2014-12-17T07:00:00Z,108.545000000,111.130000000,111.520000000,108.345000000,1943066
2014-12-18T07:00:00Z,112.215000000,113.505000000,113.550000000,111.455000000,1510190
2014-12-19T07:00:00Z,114.040000000,113.950000000,114.800000000,113.505000000,2143414
2014-12-22T07:00:00Z,114.320000000,114.800000000,115.015000000,113.665000000,1646448
2014-12-23T07:00:00Z,115.090000000,115.535000000,116.080000000,114.998000000,1018838
2014-12-24T07:00:00Z,115.750000000,115.560000000,115.920000000,115.190000000,541664
2014-12-26T07:00:00Z,115.690000000,115.795000000,116.395000000,115.295000000,604984
2014-12-29T07:00:00Z,115.455000000,116.230000000,116.580000000,115.305000000,868892
2014-12-30T07:00:00Z,115.765000000,115.830000000,116.305000000,115.565000000,843294
2014-12-31T07:00:00Z,116.125000000,115.575000000,116.835000000,115.510000000,1271552
2014-12-31T07:00:00Z,116.125000000,115.575000000,116.835000000,115.510000000,1271552
2015-01-02T07:00:00Z,115.575000000,114.700000000,116.170000000,113.795000000,888776
2015-01-05T07:00:00Z,113.530000000,111.740000000,113.875000000,111.295000000,1931756
2015-01-06T07:00:00Z,112.355000000,111.465000000,112.650000000,109.905000000,1710598
2015-01-07T07:00:00Z,111.490000000,111.960000000,112.350000000,110.695000000,2366478
2015-01-08T07:00:00Z,113.120000000,114.940000000,115.345000000,112.465000000,2075872
2015-01-09T07:00:00Z,115.115000000,113.485000000,115.385000000,112.875000000,1600170
2015-01-12T07:00:00Z,113.500000000,113.125000000,114.025000000,112.415000000,1446834
2015-01-13T07:00:00Z,113.705000000,113.495000000,115.120000000,112.235000000,1656402
2015-01-14T07:00:00Z,112.160000000,113.485000000,113.520000000,111.265000000,2555722
2015-01-15T07:00:00Z,114.555000000,113.100000000,116.990000000,112.385000000,3105548
2015-01-16T07:00:00Z,113.035000000,115.190000000,115.450000000,112.530000000,1886332
2015-01-20T07:00:00Z,115.545000000,114.080000000,116.000000000,113.080000000,2081936
2015-01-21T07:00:00Z,113.735000000,114.015000000,114.810000000,113.105000000,1469090
2015-01-22T07:00:00Z,114.355000000,115.675000000,115.980000000,113.155000000,1179620
2015-01-23T07:00:00Z,115.500000000,113.905000000,115.500000000,113.885000000,952886
2015-01-26T07:00:00Z,113.550000000,113.910000000,114.075000000,112.605000000,1002516
2015-01-27T07:00:00Z,113.000000000,112.980000000,114.013000000,112.130000000,1246454
2015-01-28T07:00:00Z,113.065000000,110.870000000,113.855000000,110.620000000,1411114
2015-01-29T07:00:00Z,111.000000000,112.855000000,113.035000000,110.155000000,1528882
2015-01-30T07:00:00Z,111.370000000,111.440000000,113.030000000,111.370000000,2708372
2015-02-02T07:00:00Z,110.625000000,111.865000000,112.120000000,109.940000000,1589568
2015-02-03T07:00:00Z,113.215000000,113.450000000,113.875000000,111.921000000,1328640
2015-02-04T07:00:00Z,113.300000000,113.725000000,114.470000000,112.505000000,1099900
2015-02-05T07:00:00Z,114.480000000,115.185000000,115.615000000,113.915000000,1352748
2015-02-06T07:00:00Z,115.090000000,115.430000000,116.000000000,114.555000000,1145998
2015-02-09T07:00:00Z,115.180000000,113.410000000,115.430000000,113.090000000,1741740
2015-02-10T07:00:00Z,114.590000000,114.120000000,114.725000000,112.950000000,1005048
2015-02-11T07:00:00Z,113.960000000,114.110000000,114.600000000,113.455000000,776132
2015-02-12T07:00:00Z,115.130000000,116.515000000,116.795000000,114.558000000,1626256
2015-02-13T07:00:00Z,116.845000000,118.385000000,118.425000000,116.550000000,1251190
2015-02-17T07:00:00Z,117.150000000,117.925000000,118.490000000,116.755000000,1739148
2015-02-18T07:00:00Z,117.150000000,118.120000000,118.190000000,116.615000000,1144030
2015-02-19T07:00:00Z,117.240000000,117.750000000,118.568000000,117.010000000,949562
2015-02-20T07:00:00Z,117.315000000,118.320000000,118.600000000,116.050000000,1347336
2015-02-23T07:00:00Z,117.605000000,118.245000000,118.550000000,117.409000000,1347624
2015-02-24T07:00:00Z,118.425000000,118.385000000,118.598000000,117.755000000,994720
2015-02-25T07:00:00Z,118.000000000,117.835000000,118.705000000,117.585000000,1086134
2015-02-26T07:00:00Z,117.620000000,117.920000000,118.405000000,117.330000000,967696
2015-02-27T07:00:00Z,117.935000000,117.690000000,118.480000000,117.050000000,1394784
2015-03-02T07:00:00Z,118.445000000,118.850000000,118.875000000,117.780000000,1454738
2015-03-03T07:00:00Z,118.445000000,117.270000000,118.490000000,116.915000000,1237544
2015-03-04T07:00:00Z,116.560000000,117.670000000,118.950000000,116.105000000,1687050
2015-03-05T07:00:00Z,117.915000000,117.725000000,118.135000000,117.060000000,974302
2015-03-06T07:00:00Z,116.685000000,115.985000000,117.385000000,115.825000000,1090056
2015-03-09T07:00:00Z,116.220000000,116.145000000,116.860000000,115.760000000,1418660
2015-03-10T07:00:00Z,114.965000000,113.835000000,115.060000000,113.818000000,1606786
2015-03-11T07:00:00Z,113.910000000,112.590000000,114.075000000,112.505000000,1594238
2015-03-12T07:00:00Z,112.695000000,114.850000000,114.915000000,112.555000000,986326
2015-03-13T07:00:00Z,114.355000000,113.955000000,114.745000000,113.168000000,1181556
2015-03-16T07:00:00Z,114.370000000,115.040000000,115.125000000,114.015000000,1091228
2015-03-17T07:00:00Z,114.235000000,113.630000000,114.770000000,113.065000000,1116190
2015-03-18T07:00:00Z,112.955000000,114.820000000,116.080000000,111.500000000,2110184
2015-03-19T07:00:00Z,114.085000000,113.085000000,114.487000000,112.925000000,1017632
2015-03-20T07:00:00Z,113.670000000,114.530000000,115.125000000,112.890000000,1555086
2015-03-23T07:00:00Z,114.365000000,113.215000000,114.910000000,113.210000000,1290164
2015-03-24T07:00:00Z,113.195000000,112.745000000,113.935000000,112.745000000,1174796
2015-03-25T07:00:00Z,112.895000000,111.230000000,113.515000000,111.140000000,1306824
2015-03-26T07:00:00Z,110.295000000,110.650000000,111.250000000,110.025000000,1125286
2015-03-27T07:00:00Z,111.010000000,111.480000000,112.000000000,110.465000000,1222798
2015-03-30T07:00:00Z,112.150000000,112.245000000,113.025000000,111.575000000,1266500
2015-03-31T07:00:00Z,111.465000000,112.770000000,113.200000000,111.080000000,1838180
2015-04-01T07:00:00Z,112.675000000,112.230000000,112.980000000,111.175000000,1623690
2015-04-02T07:00:00Z,111.710000000,111.790000000,112.635000000,111.465000000,1421054
2015-04-06T07:00:00Z,111.330000000,112.110000000,112.485000000,111.000000000,1100528
2015-04-07T07:00:00Z,112.020000000,112.450000000,113.165000000,111.705000000,1187402
2015-04-08T07:00:00Z,112.160000000,113.065000000,113.330000000,112.160000000,1620374
2015-04-09T07:00:00Z,113.185000000,114.170000000,114.260000000,112.708000000,1177408
2015-04-10T07:00:00Z,114.500000000,114.750000000,114.950000000,113.516000000,1408668
2015-04-13T07:00:00Z,114.675000000,114.795000000,115.375000000,114.210000000,1344510
2015-04-14T07:00:00Z,114.705000000,113.980000000,114.859000000,113.460000000,1281250
2015-04-15T07:00:00Z,114.370000000,113.635000000,114.545000000,113.260000000,1849842
2015-04-16T07:00:00Z,116.515000000,113.375000000,116.555000000,113.283000000,2492524
2015-04-17T07:00:00Z,112.565000000,113.305000000,114.005000000,112.175000000,2212550
2015-04-20T07:00:00Z,114.020000000,113.840000000,114.470000000,112.735000000,1911904
2015-04-21T07:00:00Z,114.105000000,113.525000000,114.140000000,112.785000000,1181338
2015-04-22T07:00:00Z,113.580000000,113.200000000,114.200000000,112.745000000,872110
2015-04-23T07:00:00Z,113.040000000,112.940000000,113.430000000,112.685000000,855502
2015-04-24T07:00:00Z,112.935000000,111.655000000,113.405000000,111.250000000,1729598
2015-04-27T07:00:00Z,111.730000000,110.425000000,111.980000000,110.188000000,2169734
2015-04-28T07:00:00Z,110.265000000,110.380000000,110.670000000,109.300000000,1957242
2015-04-29T07:00:00Z,109.850000000,111.085000000,111.165000000,109.565000000,1753378
2015-04-30T07:00:00Z,110.240000000,110.780000000,111.585000000,110.010000000,2217792
2015-05-01T07:00:00Z,110.865000000,112.275000000,112.405000000,110.580000000,1515578
2015-05-04T07:00:00Z,112.440000000,112.515000000,113.000000000,112.285000000,1091028
2015-05-05T07:00:00Z,113.250000000,110.790000000,113.490000000,110.705000000,1420806
2015-05-06T07:00:00Z,111.330000000,111.025000000,111.400000000,110.330000000,1412892
2015-05-07T07:00:00Z,110.750000000,112.455000000,112.880000000,110.340000000,2165360
2015-05-08T07:00:00Z,113.890000000,114.525000000,115.260000000,113.400000000,1585616
2015-05-11T07:00:00Z,114.265000000,113.665000000,115.090000000,113.605000000,1722936
2015-05-12T07:00:00Z,113.255000000,112.245000000,113.660000000,112.210000000,1247512
2015-05-13T07:00:00Z,112.255000000,112.700000000,112.900000000,111.250000000,1544674
2015-05-14T07:00:00Z,113.615000000,114.400000000,114.500000000,113.000000000,1527358
2015-05-15T07:00:00Z,114.340000000,115.850000000,115.890000000,113.920000000,1263464
2015-05-18T07:00:00Z,115.850000000,115.465000000,115.850000000,114.750000000,1843932
2015-05-19T07:00:00Z,115.440000000,114.995000000,115.955000000,114.695000000,1481634
2015-05-20T07:00:00Z,115.000000000,114.465000000,115.390000000,114.115000000,1284816
2015-05-21T07:00:00Z,114.160000000,114.615000000,115.115000000,114.120000000,664410
2015-05-22T07:00:00Z,114.320000000,114.595000000,115.160000000,114.320000000,742834
2015-05-26T07:00:00Z,114.210000000,113.360000000,114.590000000,112.875000000,1470792
2015-05-27T07:00:00Z,113.760000000,114.570000000,114.825000000,113.610000000,1433842
2015-05-28T07:00:00Z,114.145000000,114.910000000,115.065000000,113.675000000,1230906
2015-05-29T07:00:00Z,114.635000000,114.445000000,115.160000000,114.020000000,1200698
2015-06-01T07:00:00Z,114.085000000,114.515000000,115.130000000,113.640000000,903348
2015-06-02T07:00:00Z,114.335000000,114.125000000,114.955000000,113.505000000,768690
2015-06-03T07:00:00Z,114.665000000,114.995000000,115.050000000,114.012000000,1113932
2015-06-04T07:00:00Z,114.465000000,114.385000000,115.125000000,114.120000000,1406534
2015-06-05T07:00:00Z,113.960000000,114.315000000,114.580000000,113.235000000,1045788
2015-06-08T07:00:00Z,114.205000000,114.050000000,114.283000000,113.605000000,1051044
2015-06-09T07:00:00Z,114.240000000,114.625000000,115.145000000,113.800000000,1070522
2015-06-10T07:00:00Z,115.215000000,115.940000000,116.495000000,115.005000000,1979410
2015-06-11T07:00:00Z,116.405000000,116.995000000,117.475000000,115.480000000,1806188
2015-06-12T07:00:00Z,116.825000000,116.625000000,116.970000000,116.095000000,1162232
2015-06-15T07:00:00Z,115.640000000,115.430000000,116.140000000,114.950000000,990493
2015-06-16T07:00:00Z,115.220000000,116.000000000,116.190000000,115.000000000,1286916
2015-06-17T07:00:00Z,116.270000000,116.670000000,116.830000000,115.140000000,2525445
2015-06-18T07:00:00Z,117.120000000,117.810000000,118.240000000,116.790000000,1668934
2015-06-19T07:00:00Z,117.160000000,117.300000000,118.020000000,116.820000000,2210023
2015-06-22T07:00:00Z,118.000000000,118.170000000,118.640000000,117.760000000,901041
2015-06-23T07:00:00Z,118.480000000,118.290000000,118.690000000,117.760000000,1174896
2015-06-24T07:00:00Z,118.280000000,117.970000000,118.490000000,117.900000000,1918339
2015-06-25T07:00:00Z,118.100000000,117.740000000,118.560000000,117.700000000,1207833
2015-06-26T07:00:00Z,118.140000000,118.010000000,118.230000000,117.600000000,751278
2015-06-29T07:00:00Z,117.140000000,114.980000000,117.310000000,114.880000000,996831
2015-06-30T07:00:00Z,115.690000000,114.720000000,116.000000000,114.400000000,1115313
2015-07-01T07:00:00Z,115.780000000,116.500000000,116.555000000,115.230000000,1256405
2015-07-02T07:00:00Z,117.150000000,115.910000000,117.320000000,115.240000000,943202
2015-07-06T07:00:00Z,114.810000000,115.100000000,115.980000000,114.210000000,1425884
2015-07-07T07:00:00Z,115.330000000,115.060000000,115.330000000,113.360000000,1641163
2015-07-08T07:00:00Z,113.910000000,113.100000000,114.485000000,113.020000000,1537031
2015-07-09T07:00:00Z,114.660000000,112.640000000,114.850000000,112.630000000,1718949
2015-07-10T07:00:00Z,114.120000000,114.900000000,115.030000000,113.540000000,1364125
2015-07-13T07:00:00Z,116.190000000,116.530000000,116.610000000,115.960000000,1474669
2015-07-14T07:00:00Z,116.500000000,117.610000000,117.890000000,116.460000000,1185055
2015-07-15T07:00:00Z,117.320000000,116.980000000,117.990000000,116.790000000,1510758
2015-07-16T07:00:00Z,117.090000000,111.820000000,118.270000000,111.535000000,5356139
2015-07-17T07:00:00Z,112.460000000,111.800000000,113.540000000,111.660000000,3351851
2015-07-20T07:00:00Z,111.950000000,110.850000000,112.000000000,110.620000000,2146926
2015-07-21T07:00:00Z,111.120000000,108.210000000,111.550000000,107.860000000,3796705
2015-07-22T07:00:00Z,108.120000000,108.090000000,108.810000000,107.290000000,2440856
2015-07-23T07:00:00Z,108.100000000,105.630000000,108.190000000,105.100000000,3033240
2015-07-24T07:00:00Z,105.540000000,103.250000000,105.600000000,102.190000000,3112136
2015-07-27T07:00:00Z,102.690000000,102.390000000,103.210000000,101.610000000,2766020
2015-07-28T07:00:00Z,103.010000000,106.920000000,107.190000000,102.640000000,3080811
2015-07-29T07:00:00Z,107.080000000,108.570000000,108.990000000,106.840000000,2653502
2015-07-30T07:00:00Z,108.500000000,108.520000000,108.760000000,107.570000000,1233782
2015-07-31T07:00:00Z,109.000000000,108.380000000,109.370000000,108.180000000,1362379
2015-08-03T07:00:00Z,107.310000000,107.870000000,108.710000000,107.070000000,1535424
2015-08-04T07:00:00Z,108.000000000,106.540000000,108.460000000,106.200000000,1599089
2015-08-05T07:00:00Z,107.690000000,106.590000000,108.090000000,106.260000000,1207686
2015-08-06T07:00:00Z,106.240000000,105.210000000,106.540000000,104.905000000,1507655
2015-08-07T07:00:00Z,104.860000000,103.920000000,105.145000000,103.740000000,1589333
2015-08-10T07:00:00Z,104.720000000,106.610000000,106.610000000,104.400000000,1196626
2015-08-11T07:00:00Z,105.360000000,104.410000000,105.410000000,103.800000000,1477890
2015-08-12T07:00:00Z,103.640000000,104.030000000,104.210000000,102.250000000,3566690
2015-08-13T07:00:00Z,104.260000000,103.520000000,104.400000000,103.460000000,1230526
2015-08-14T07:00:00Z,103.640000000,104.700000000,104.800000000,103.390000000,1344721
2015-08-17T07:00:00Z,104.210000000,104.260000000,105.090000000,103.850000000,1578163
2015-08-18T07:00:00Z,104.420000000,104.570000000,105.710000000,104.360000000,2426648
2015-08-19T07:00:00Z,103.780000000,102.500000000,104.090000000,102.150000000,2175164
2015-08-20T07:00:00Z,101.910000000,99.870000000,102.400000000,99.870000000,2302416
2015-08-21T07:00:00Z,98.560000000,97.210000000,99.310000000,97.120000000,2542954
2015-08-24T07:00:00Z,92.030000000,92.260000000,95.950000000,91.000000000,3951133
2015-08-25T07:00:00Z,94.870000000,91.050000000,94.870000000,91.020000000,2960871
2015-08-26T07:00:00Z,92.680000000,93.100000000,93.220000000,91.000000000,3991735
2015-08-27T07:00:00Z,94.670000000,95.190000000,95.850000000,93.270000000,4585858
2015-08-28T07:00:00Z,94.850000000,96.110000000,96.377000000,94.850000000,1710015
2015-08-31T07:00:00Z,95.560000000,95.290000000,96.660000000,94.760000000,1714133
2015-09-01T07:00:00Z,93.270000000,91.350000000,93.630000000,90.810000000,2433813
2015-09-02T07:00:00Z,92.850000000,93.530000000,93.530000000,91.620000000,2498278
2015-09-03T07:00:00Z,94.060000000,93.980000000,94.890000000,93.560000000,1472064
2015-09-04T07:00:00Z,92.670000000,93.310000000,93.840000000,92.290000000,2149396
2015-09-08T07:00:00Z,94.940000000,96.400000000,96.410000000,94.520000000,1709644
2015-09-09T07:00:00Z,97.360000000,96.100000000,97.880000000,95.970000000,2925368
2015-09-10T07:00:00Z,96.090000000,96.640000000,97.390000000,95.570000000,2114865
2015-09-11T07:00:00Z,96.300000000,96.720000000,96.780000000,95.420000000,1472635
2015-09-14T07:00:00Z,96.310000000,94.160000000,96.770000000,93.740000000,2397318
2015-09-15T07:00:00Z,94.160000000,94.280000000,95.330000000,93.670000000,2385582
2015-09-16T07:00:00Z,94.420000000,95.070000000,95.360000000,94.320000000,1827604
2015-09-17T07:00:00Z,95.070000000,94.460000000,96.040000000,94.110000000,2171415
2015-09-18T07:00:00Z,93.110000000,93.190000000,93.990000000,92.730000000,2220822
2015-09-21T07:00:00Z,93.550000000,93.450000000,94.330000000,93.020000000,1186599
2015-09-22T07:00:00Z,92.230000000,91.620000000,92.570000000,90.540000000,1904974
2015-09-23T07:00:00Z,91.750000000,89.940000000,92.169000000,89.800000000,1699186
2015-09-24T07:00:00Z,89.050000000,88.110000000,89.460000000,87.190000000,3718159
2015-09-25T07:00:00Z,88.660000000,88.340000000,89.230000000,87.630000000,1507090
2015-09-28T07:00:00Z,87.500000000,84.510000000,87.830000000,84.400000000,2322877
2015-09-29T07:00:00Z,84.690000000,85.950000000,86.320000000,84.500000000,2483655
2015-09-30T07:00:00Z,87.090000000,87.690000000,88.220000000,86.950000000,2928363
2015-10-01T07:00:00Z,82.930000000,90.130000000,90.180000000,82.930000000,3581533
2015-10-02T07:00:00Z,89.050000000,92.660000000,92.720000000,88.350000000,2321962
2015-10-05T07:00:00Z,93.440000000,94.590000000,94.850000000,93.200000000,1973817
2015-10-06T07:00:00Z,94.610000000,93.400000000,95.195000000,93.250000000,2351686
2015-10-07T07:00:00Z,92.900000000,94.310000000,94.340000000,92.480000000,2208796
2015-10-08T07:00:00Z,94.170000000,95.770000000,95.990000000,93.790000000,1293623
2015-10-09T07:00:00Z,95.700000000,95.970000000,96.457000000,95.010000000,1695281
2015-10-12T07:00:00Z,96.660000000,97.340000000,97.710000000,96.010000000,1818662
2015-10-13T07:00:00Z,96.540000000,97.180000000,98.050000000,95.870000000,2226693
2015-10-14T07:00:00Z,96.850000000,97.320000000,98.230000000,96.760000000,2242369
2015-10-15T07:00:00Z,97.810000000,99.260000000,99.380000000,96.310000000,3253581
2015-10-16T07:00:00Z,100.200000000,100.740000000,103.260000000,99.990000000,3795596
2015-10-19T07:00:00Z,100.030000000,101.180000000,101.280000000,99.400000000,1295898
2015-10-20T07:00:00Z,101.170000000,101.380000000,102.400000000,100.750000000,1435715
2015-10-21T07:00:00Z,101.720000000,100.640000000,101.850000000,100.000000000,1978855
2015-10-22T07:00:00Z,101.600000000,103.620000000,104.000000000,101.342000000,2496932
2015-10-23T07:00:00Z,104.500000000,103.990000000,104.880000000,103.730000000,1546620
2015-10-26T07:00:00Z,104.100000000,103.930000000,104.480000000,103.420000000,1279200
2015-10-27T07:00:00Z,103.470000000,102.930000000,104.190000000,102.630000000,1315178
2015-10-28T07:00:00Z,103.470000000,104.330000000,104.350000000,102.710000000,1040455
2015-10-29T07:00:00Z,104.400000000,104.280000000,104.670000000,103.580000000,1099892
2015-10-30T07:00:00Z,104.580000000,104.260000000,104.780000000,103.680000000,1519924
2015-11-02T07:00:00Z,104.220000000,104.000000000,104.690000000,103.360000000,1457191
2015-11-03T07:00:00Z,104.050000000,104.190000000,104.790000000,103.660000000,1013389
2015-11-04T07:00:00Z,104.650000000,103.860000000,104.720000000,103.790000000,730526
2015-11-05T07:00:00Z,103.720000000,103.210000000,104.005000000,102.440000000,910478
2015-11-06T07:00:00Z,102.490000000,103.000000000,103.260000000,101.830000000,1012111
2015-11-09T07:00:00Z,102.710000000,101.730000000,102.770000000,100.750000000,893108
2015-11-10T07:00:00Z,101.390000000,101.120000000,101.850000000,100.380000000,1316203
2015-11-11T07:00:00Z,101.510000000,101.610000000,101.970000000,100.854000000,1011509
2015-11-12T07:00:00Z,100.610000000,99.210000000,101.120000000,99.205000000,1903904
2015-11-13T07:00:00Z,99.340000000,100.830000000,101.480000000,98.860000000,1938251
2015-11-16T07:00:00Z,100.910000000,101.950000000,102.120000000,100.230000000,1766689
2015-11-17T07:00:00Z,101.900000000,101.710000000,103.061000000,101.450000000,1381130
2015-11-18T07:00:00Z,101.810000000,104.230000000,104.515000000,101.550000000,2128295
2015-11-19T07:00:00Z,104.230000000,103.370000000,104.570000000,102.884000000,1252206
2015-11-20T07:00:00Z,103.500000000,104.620000000,105.080000000,103.310000000,1761502
2015-11-23T07:00:00Z,105.000000000,105.470000000,106.030000000,104.290000000,1999680
2015-11-24T07:00:00Z,104.530000000,105.490000000,106.040000000,104.530000000,1159587
2015-11-25T07:00:00Z,105.910000000,106.460000000,106.760000000,105.380000000,1152343
2015-11-27T07:00:00Z,106.280000000,106.210000000,106.680000000,105.540000000,491594
2015-11-30T07:00:00Z,106.360000000,105.740000000,106.490000000,105.120000000,1560416
2015-12-01T07:00:00Z,106.390000000,106.760000000,106.870000000,105.820000000,1008405
2015-12-02T07:00:00Z,106.200000000,105.340000000,106.740000000,105.080000000,996033
2015-12-03T07:00:00Z,105.400000000,104.300000000,105.990000000,103.920000000,1131973
2015-12-04T07:00:00Z,104.510000000,105.960000000,106.370000000,104.370000000,1079812
2015-12-07T07:00:00Z,105.270000000,104.990000000,105.860000000,104.275000000,1000702
2015-12-08T07:00:00Z,103.920000000,102.750000000,104.530000000,102.660000000,1568163
2015-12-09T07:00:00Z,102.750000000,101.550000000,103.580000000,100.590000000,2035920
2015-12-10T07:00:00Z,101.330000000,100.880000000,101.740000000,100.510000000,1651976
2015-12-11T07:00:00Z,99.460000000,98.730000000,99.960000000,98.410000000,1783093
2015-12-14T07:00:00Z,98.560000000,97.730000000,98.960000000,96.880000000,2216286
2015-12-15T07:00:00Z,98.720000000,98.550000000,99.420000000,98.470000000,1258076
2015-12-16T07:00:00Z,99.180000000,100.220000000,100.325000000,98.530000000,1585775
2015-12-17T07:00:00Z,100.530000000,98.240000000,100.660000000,98.170000000,1584000
2015-12-18T07:00:00Z,97.990000000,96.290000000,98.200000000,96.250000000,1807988
2015-12-21T07:00:00Z,96.920000000,97.230000000,97.370000000,96.491000000,1202643
2015-12-22T07:00:00Z,97.900000000,98.760000000,99.160000000,97.560000000,887327
2015-12-23T07:00:00Z,99.380000000,100.240000000,100.520000000,99.240000000,827978
2015-12-24T07:00:00Z,99.940000000,100.390000000,100.790000000,99.940000000,371784
2015-12-28T07:00:00Z,100.200000000,99.900000000,100.330000000,99.420000000,680729
2015-12-29T07:00:00Z,100.820000000,100.580000000,100.935000000,99.950000000,676561
2015-12-30T07:00:00Z,100.330000000,99.770000000,100.710000000,99.710000000,730411
2015-12-31T07:00:00Z,99.380000000,98.820000000,100.000000000,98.790000000,895356
2015-12-31T07:00:00Z,99.380000000,98.820000000,100.000000000,98.790000000,895356
2016-01-04T07:00:00Z,97.270000000,97.960000000,97.990000000,96.060000000,1636433
2016-01-05T07:00:00Z,98.630000000,98.310000000,99.320000000,97.465000000,1401524
2016-01-06T07:00:00Z,96.440000000,96.470000000,97.200000000,95.930000000,1809335
2016-01-07T07:00:00Z,95.070000000,95.250000000,97.140000000,94.680000000,2597603
2016-01-08T07:00:00Z,95.680000000,94.490000000,96.640000000,94.170000000,1979363
2016-01-11T07:00:00Z,94.840000000,94.450000000,95.720000000,93.730000000,2187220
2016-01-12T07:00:00Z,95.330000000,95.120000000,95.560000000,93.790000000,1320681
2016-01-13T07:00:00Z,95.980000000,93.050000000,96.240000000,93.010000000,2119863
2016-01-14T07:00:00Z,93.290000000,93.570000000,94.120000000,91.600000000,2300175
2016-01-15T07:00:00Z,91.640000000,91.900000000,92.350000000,90.340000000,2052762
2016-01-19T07:00:00Z,92.800000000,91.600000000,93.250000000,89.900000000,3317956
2016-01-20T07:00:00Z,90.450000000,93.520000000,94.690000000,90.020000000,4935210
2016-01-21T07:00:00Z,93.000000000,91.920000000,94.670000000,90.610000000,4310680
2016-01-22T07:00:00Z,92.790000000,93.160000000,94.810000000,92.330000000,1860686
2016-01-25T07:00:00Z,92.810000000,91.110000000,93.320000000,90.930000000,1623206
2016-01-26T07:00:00Z,91.480000000,92.580000000,93.290000000,91.110000000,1236814
2016-01-27T07:00:00Z,92.430000000,92.800000000,94.240000000,91.900000000,1887428
2016-01-28T07:00:00Z,93.290000000,92.090000000,94.040000000,91.976000000,2347271
2016-01-29T07:00:00Z,92.720000000,95.120000000,95.140000000,92.280000000,2365396
2016-02-01T07:00:00Z,93.710000000,95.590000000,95.900000000,93.250000000,1748378
2016-02-02T07:00:00Z,94.970000000,93.040000000,94.970000000,92.660000000,1635958
2016-02-03T07:00:00Z,94.290000000,95.110000000,95.150000000,91.870000000,1831786
2016-02-04T07:00:00Z,95.330000000,95.700000000,96.315000000,94.600000000,1457465
2016-02-05T07:00:00Z,95.310000000,92.870000000,95.830000000,92.710000000,1544365
2016-02-08T07:00:00Z,92.210000000,89.650000000,92.280000000,88.860000000,1926814
2016-02-09T07:00:00Z,88.620000000,90.990000000,91.680000000,88.370000000,1567212
2016-02-10T07:00:00Z,91.670000000,91.340000000,93.210000000,91.040000000,1240182
2016-02-11T07:00:00Z,89.350000000,89.270000000,90.730000000,88.465000000,1796456
2016-02-12T07:00:00Z,90.060000000,91.780000000,92.135000000,89.620000000,1438716
2016-02-16T07:00:00Z,93.060000000,93.620000000,93.770000000,91.775000000,1198946
2016-02-17T07:00:00Z,94.310000000,95.000000000,95.450000000,93.010000000,1850168
2016-02-18T07:00:00Z,95.200000000,94.690000000,95.580000000,94.140000000,1506434
2016-02-19T07:00:00Z,94.660000000,95.630000000,95.740000000,93.680000000,1592329
2016-02-22T07:00:00Z,96.870000000,96.720000000,98.000000000,95.860000000,1291571
2016-02-23T07:00:00Z,96.540000000,94.870000000,96.660000000,94.700000000,1260295
2016-02-24T07:00:00Z,93.610000000,95.680000000,95.810000000,92.950000000,815227
2016-02-25T07:00:00Z,96.110000000,97.010000000,97.060000000,94.560000000,1036816
2016-02-26T07:00:00Z,97.730000000,98.160000000,98.450000000,97.360000000,1078999
2016-02-29T07:00:00Z,97.970000000,96.530000000,98.844000000,96.490000000,1430920
2016-03-01T07:00:00Z,97.550000000,99.580000000,100.490000000,96.920000000,1503966
2016-03-02T07:00:00Z,99.220000000,99.330000000,99.740000000,98.430000000,945054
2016-03-03T07:00:00Z,98.960000000,100.300000000,100.750000000,98.230000000,1921725
2016-03-04T07:00:00Z,100.670000000,102.490000000,102.930000000,100.315000000,2073315
2016-03-07T07:00:00Z,101.840000000,103.370000000,103.450000000,101.640000000,1649018
2016-03-08T07:00:00Z,102.380000000,101.510000000,102.650000000,101.350000000,1280035
2016-03-09T07:00:00Z,102.200000000,102.280000000,102.705000000,101.380000000,1147527
2016-03-10T07:00:00Z,102.600000000,102.910000000,104.220000000,101.840000000,902020
2016-03-11T07:00:00Z,104.150000000,105.010000000,105.230000000,103.780000000,1479582
2016-03-14T07:00:00Z,104.340000000,104.740000000,105.096000000,104.000000000,878714
2016-03-15T07:00:00Z,103.950000000,104.760000000,104.950000000,103.620000000,819325
2016-03-16T07:00:00Z,104.220000000,106.610000000,106.670000000,104.130000000,1122636
2016-03-17T07:00:00Z,106.900000000,109.400000000,109.710000000,106.900000000,1789771
2016-03-18T07:00:00Z,109.620000000,108.900000000,110.580000000,108.050000000,2628422
2016-03-21T07:00:00Z,109.620000000,108.890000000,110.530000000,108.280000000,2170274
2016-03-22T07:00:00Z,108.800000000,109.840000000,110.200000000,108.560000000,1663271
2016-03-23T07:00:00Z,108.910000000,109.140000000,109.680000000,108.130000000,1222284
2016-03-24T07:00:00Z,108.200000000,108.950000000,109.060000000,107.380000000,1386202
2016-03-28T07:00:00Z,109.390000000,109.400000000,109.610000000,108.740000000,1043780
2016-03-29T07:00:00Z,108.800000000,110.570000000,110.590000000,108.612000000,1026264
2016-03-30T07:00:00Z,111.000000000,111.900000000,112.100000000,110.730000000,1636866
2016-03-31T07:00:00Z,111.900000000,111.490000000,112.082000000,111.130000000,1438901
2016-04-01T07:00:00Z,110.440000000,113.110000000,113.290000000,110.220000000,1453334
2016-04-04T07:00:00Z,113.150000000,112.190000000,113.230000000,111.630000000,1390534
2016-04-05T07:00:00Z,111.490000000,111.430000000,112.035000000,110.910000000,1319226
2016-04-06T07:00:00Z,111.370000000,112.080000000,112.200000000,110.640000000,812145
2016-04-07T07:00:00Z,111.350000000,110.610000000,111.830000000,110.080000000,921245
2016-04-08T07:00:00Z,111.030000000,111.830000000,112.140000000,111.030000000,712045
2016-04-11T07:00:00Z,112.070000000,111.680000000,112.840000000,111.590000000,887120
2016-04-12T07:00:00Z,112.090000000,112.940000000,113.170000000,111.360000000,871345
2016-04-13T07:00:00Z,113.420000000,114.230000000,114.290000000,112.740000000,1062905
2016-04-14T07:00:00Z,113.740000000,114.510000000,114.590000000,113.740000000,1070934
2016-04-15T07:00:00Z,114.690000000,115.350000000,115.400000000,114.390000000,1284875
2016-04-18T07:00:00Z,115.000000000,115.750000000,115.930000000,114.640000000,1543522
2016-04-19T07:00:00Z,116.240000000,116.550000000,116.800000000,115.770000000,1466605
2016-04-20T07:00:00Z,116.850000000,116.070000000,117.000000000,115.550000000,1593694
2016-04-21T07:00:00Z,111.700000000,110.260000000,113.000000000,110.100000000,3641264
2016-04-22T07:00:00Z,111.350000000,113.190000000,113.390000000,110.780000000,2145526
2016-04-25T07:00:00Z,113.000000000,112.600000000,113.300000000,111.970000000,951003
2016-04-26T07:00:00Z,113.370000000,113.550000000,113.910000000,113.010000000,1525897
2016-04-27T07:00:00Z,113.890000000,112.990000000,114.650000000,112.590000000,1246896
2016-04-28T07:00:00Z,111.890000000,112.770000000,113.400000000,111.530000000,1617399
2016-04-29T07:00:00Z,112.400000000,110.390000000,112.730000000,109.750000000,2308459
2016-05-02T07:00:00Z,110.180000000,111.240000000,111.250000000,109.040000000,1390051
2016-05-03T07:00:00Z,110.090000000,109.500000000,110.220000000,109.020000000,1303293
2016-05-04T07:00:00Z,108.510000000,108.590000000,109.360000000,108.000000000,1062095
2016-05-05T07:00:00Z,109.040000000,108.580000000,109.530000000,108.234000000,810173
2016-05-06T07:00:00Z,107.700000000,108.310000000,108.310000000,107.180000000,1172291
2016-05-09T07:00:00Z,108.140000000,107.440000000,108.230000000,107.290000000,1046643
2016-05-10T07:00:00Z,107.800000000,108.730000000,108.825000000,107.260000000,817535
2016-05-11T07:00:00Z,108.740000000,107.420000000,109.200000000,107.380000000,1623257
2016-05-12T07:00:00Z,108.230000000,107.490000000,108.550000000,106.360000000,1130257
2016-05-13T07:00:00Z,107.570000000,106.700000000,108.070000000,106.470000000,1547593
2016-05-16T07:00:00Z,107.190000000,108.160000000,108.640000000,107.090000000,1488643
2016-05-17T07:00:00Z,107.820000000,107.010000000,108.265000000,106.690000000,1226987
2016-05-18T07:00:00Z,106.930000000,106.390000000,107.790000000,106.070000000,1996244
2016-05-19T07:00:00Z,106.000000000,105.640000000,106.650000000,104.960000000,1153855
2016-05-20T07:00:00Z,106.380000000,106.210000000,107.030000000,105.925000000,906316
2016-05-23T07:00:00Z,106.190000000,106.430000000,106.830000000,105.800000000,1485412
2016-05-24T07:00:00Z,106.570000000,107.760000000,108.150000000,106.460000000,1084848
2016-05-25T07:00:00Z,108.260000000,108.320000000,108.730000000,107.700000000,800585
2016-05-26T07:00:00Z,108.350000000,107.700000000,109.000000000,107.590000000,685735
2016-05-27T07:00:00Z,107.960000000,108.600000000,108.710000000,107.300000000,732422
2016-05-31T07:00:00Z,108.650000000,107.680000000,108.870000000,107.200000000,1807466
2016-06-01T07:00:00Z,107.310000000,107.980000000,108.210000000,106.490000000,998448
2016-06-02T07:00:00Z,107.360000000,108.200000000,108.200000000,106.890000000,759921
2016-06-03T07:00:00Z,108.070000000,107.670000000,108.170000000,106.860000000,1338729
2016-06-06T07:00:00Z,108.100000000,108.120000000,108.870000000,107.680000000,935929
2016-06-07T07:00:00Z,108.150000000,107.770000000,108.360000000,107.370000000,1238473
2016-06-08T07:00:00Z,108.060000000,110.950000000,111.260000000,107.510000000,1908107
2016-06-09T07:00:00Z,110.210000000,110.430000000,110.490000000,109.520000000,2689507
2016-06-10T07:00:00Z,109.770000000,109.240000000,109.860000000,108.770000000,1255754
2016-06-13T07:00:00Z,108.940000000,107.690000000,109.250000000,107.610000000,1343900
2016-06-14T07:00:00Z,107.310000000,107.080000000,107.850000000,106.430000000,1221823
2016-06-15T07:00:00Z,107.300000000,106.620000000,107.640000000,106.500000000,1056485
2016-06-16T07:00:00Z,105.620000000,106.960000000,107.010000000,105.060000000,843422
2016-06-17T07:00:00Z,107.000000000,108.180000000,108.260000000,106.630000000,1807062
2016-06-20T07:00:00Z,109.280000000,108.420000000,109.730000000,108.320000000,1227922
2016-06-21T07:00:00Z,108.650000000,108.060000000,108.650000000,107.830000000,1346303
2016-06-22T07:00:00Z,108.400000000,107.810000000,108.400000000,107.660000000,1219510
2016-06-23T07:00:00Z,109.700000000,111.220000000,111.260000000,109.440000000,2078270
2016-06-24T07:00:00Z,108.090000000,102.730000000,108.090000000,102.210000000,3821510
2016-06-27T07:00:00Z,101.410000000,98.690000000,101.470000000,98.080000000,3449547
2016-06-28T07:00:00Z,99.950000000,100.560000000,100.560000000,98.420000000,1941333
2016-06-29T07:00:00Z,101.940000000,102.490000000,102.720000000,101.570000000,1582807
2016-06-30T07:00:00Z,102.570000000,104.150000000,104.150000000,101.990000000,2192977
2016-07-01T07:00:00Z,104.320000000,104.520000000,105.490000000,104.070000000,1334274
2016-07-05T07:00:00Z,103.920000000,102.650000000,103.930000000,101.800000000,1898755
2016-07-06T07:00:00Z,102.200000000,102.970000000,103.020000000,101.715000000,1451539
2016-07-07T07:00:00Z,103.280000000,103.030000000,103.780000000,102.525000000,1547875
2016-07-08T07:00:00Z,104.180000000,106.320000000,106.610000000,103.980000000,1649140
2016-07-11T07:00:00Z,106.630000000,106.610000000,107.040000000,106.420000000,892797
2016-07-12T07:00:00Z,107.550000000,108.700000000,109.500000000,107.310000000,1404235
2016-07-13T07:00:00Z,109.100000000,109.470000000,109.550000000,107.960000000,1238503
2016-07-14T07:00:00Z,109.810000000,108.630000000,109.990000000,108.350000000,1359368
2016-07-15T07:00:00Z,109.020000000,109.270000000,109.480000000,108.140000000,1341275
2016-07-18T07:00:00Z,109.000000000,109.300000000,109.500000000,108.610000000,870149
2016-07-19T07:00:00Z,108.640000000,108.380000000,108.980000000,107.770000000,1424222
2016-07-20T07:00:00Z,108.790000000,110.030000000,110.140000000,108.480000000,2361134
2016-07-21T07:00:00Z,109.000000000,108.590000000,110.130000000,107.560000000,2139928
2016-07-22T07:00:00Z,108.590000000,107.650000000,108.590000000,107.305000000,1708845
2016-07-25T07:00:00Z,107.230000000,106.590000000,107.345000000,106.400000000,1670791
2016-07-26T07:00:00Z,107.070000000,106.760000000,107.070000000,106.179000000,2285250
2016-07-27T07:00:00Z,106.870000000,106.090000000,106.870000000,105.760000000,1627366
2016-07-28T07:00:00Z,105.720000000,105.480000000,106.320000000,104.821000000,2163041
2016-07-29T07:00:00Z,104.990000000,104.710000000,105.230000000,103.740000000,2107674
2016-08-01T07:00:00Z,104.100000000,104.670000000,105.060000000,103.740000000,1641907
2016-08-02T07:00:00Z,104.880000000,103.690000000,104.880000000,103.350000000,1473514
2016-08-03T07:00:00Z,104.130000000,104.330000000,104.380000000,102.870000000,2415786
2016-08-04T07:00:00Z,104.300000000,104.100000000,104.820000000,103.850000000,1282197
2016-08-05T07:00:00Z,104.610000000,104.430000000,104.985000000,104.350000000,1063659
2016-08-08T07:00:00Z,104.450000000,104.480000000,104.700000000,104.050000000,1211361
2016-08-09T07:00:00Z,104.350000000,104.370000000,105.200000000,104.190000000,1044980
2016-08-10T07:00:00Z,104.690000000,104.690000000,105.070000000,104.090000000,1102365
2016-08-11T07:00:00Z,104.820000000,104.740000000,105.380000000,104.430000000,1096106
2016-08-12T07:00:00Z,104.610000000,103.990000000,104.870000000,103.710000000,977582
2016-08-15T07:00:00Z,104.130000000,104.460000000,104.750000000,104.020000000,1037262
2016-08-16T07:00:00Z,104.510000000,103.650000000,105.355000000,103.650000000,1287115
2016-08-17T07:00:00Z,103.660000000,103.590000000,104.030000000,102.900000000,1243021
2016-08-18T07:00:00Z,103.590000000,103.770000000,103.960000000,103.360000000,1036944
2016-08-19T07:00:00Z,103.220000000,104.730000000,104.860000000,103.220000000,1090001
2016-08-22T07:00:00Z,104.430000000,105.210000000,105.283000000,104.000000000,1148549
2016-08-23T07:00:00Z,105.870000000,106.440000000,106.770000000,105.600000000,1341749
2016-08-24T07:00:00Z,106.280000000,106.390000000,107.120000000,106.000000000,1808389
2016-08-25T07:00:00Z,106.100000000,106.750000000,107.190000000,106.050000000,914054
2016-08-26T07:00:00Z,106.970000000,105.750000000,107.650000000,105.410000000,929702
2016-08-29T07:00:00Z,105.910000000,107.600000000,107.890000000,105.910000000,1301714
2016-08-30T07:00:00Z,107.350000000,107.280000000,107.699000000,106.670000000,1036536
2016-08-31T07:00:00Z,107.080000000,105.880000000,107.080000000,105.430000000,1392251
2016-09-01T07:00:00Z,106.020000000,105.980000000,106.300000000,105.090000000,929606
2016-09-02T07:00:00Z,106.740000000,107.040000000,107.070000000,106.320000000,662667
2016-09-06T07:00:00Z,107.370000000,107.620000000,107.970000000,107.010000000,1321192
2016-09-07T07:00:00Z,107.240000000,106.730000000,107.790000000,106.420000000,1337902
2016-09-08T07:00:00Z,106.540000000,105.300000000,106.880000000,105.280000000,1042443
2016-09-09T07:00:00Z,104.580000000,100.860000000,104.580000000,100.760000000,2339450
2016-09-12T07:00:00Z,100.480000000,102.760000000,102.980000000,100.420000000,1597182
2016-09-13T07:00:00Z,101.710000000,101.160000000,101.950000000,100.580000000,1425355
2016-09-14T07:00:00Z,101.070000000,100.680000000,101.380000000,99.964000000,1098659
2016-09-15T07:00:00Z,100.690000000,101.240000000,101.596000000,100.380000000,1199563
2016-09-16T07:00:00Z,100.630000000,100.210000000,100.820000000,99.780000000,1986709
2016-09-19T07:00:00Z,100.930000000,101.080000000,101.550000000,100.530000000,1266116
2016-09-20T07:00:00Z,100.410000000,101.260000000,101.950000000,100.410000000,1317944
2016-09-21T07:00:00Z,101.800000000,102.460000000,102.540000000,101.260000000,1143979
2016-09-22T07:00:00Z,103.510000000,103.140000000,104.220000000,102.920000000,1149767
2016-09-23T07:00:00Z,103.110000000,103.270000000,103.760000000,102.780000000,1648992
2016-09-26T07:00:00Z,103.070000000,102.140000000,103.290000000,102.010000000,928392
2016-09-27T07:00:00Z,102.000000000,102.450000000,102.630000000,101.545000000,1290438
2016-09-28T07:00:00Z,102.920000000,103.570000000,103.950000000,102.370000000,1300810
2016-09-29T07:00:00Z,103.650000000,102.060000000,103.960000000,101.975000000,1162960
2016-09-30T07:00:00Z,102.650000000,103.360000000,103.850000000,102.650000000,1716461
2016-10-03T07:00:00Z,103.270000000,103.440000000,104.040000000,103.270000000,1348278
2016-10-04T07:00:00Z,103.800000000,102.050000000,104.080000000,101.800000000,1560626
2016-10-05T07:00:00Z,102.300000000,101.580000000,102.730000000,101.550000000,912363
2016-10-06T07:00:00Z,101.400000000,102.190000000,102.360000000,101.220000000,1078775
2016-10-07T07:00:00Z,97.190000000,93.730000000,97.500000000,92.510000000,7136802
2016-10-10T07:00:00Z,94.310000000,93.850000000,94.990000000,93.220000000,3251573
2016-10-11T07:00:00Z,93.250000000,92.300000000,93.250000000,91.510000000,4157688
2016-10-12T07:00:00Z,92.390000000,91.940000000,92.555000000,91.430000000,2171212
2016-10-13T07:00:00Z,91.010000000,92.120000000,92.360000000,90.310000000,2603365
2016-10-14T07:00:00Z,92.750000000,92.600000000,93.110000000,92.550000000,2453246
2016-10-17T07:00:00Z,92.600000000,92.660000000,92.880000000,92.240000000,1918790
2016-10-18T07:00:00Z,93.750000000,92.810000000,93.830000000,92.790000000,1317470
2016-10-19T07:00:00Z,92.820000000,92.560000000,93.180000000,92.160000000,2166432
2016-10-20T07:00:00Z,92.690000000,92.660000000,94.470000000,92.510000000,2411418
2016-10-21T07:00:00Z,91.420000000,92.380000000,92.590000000,90.480000000,2366992
2016-10-24T07:00:00Z,92.750000000,93.240000000,93.510000000,92.700000000,2011073
2016-10-25T07:00:00Z,90.550000000,91.220000000,92.060000000,89.640000000,4338508
2016-10-26T07:00:00Z,91.010000000,92.520000000,92.620000000,91.010000000,2515849
2016-10-27T07:00:00Z,93.030000000,93.350000000,93.630000000,92.740000000,2291233
2016-10-28T07:00:00Z,93.440000000,92.870000000,94.530000000,92.270000000,2062332
2016-10-31T07:00:00Z,93.350000000,93.130000000,93.440000000,92.810000000,2172977
2016-11-01T07:00:00Z,93.250000000,92.740000000,93.590000000,91.750000000,2224383
2016-11-02T07:00:00Z,92.850000000,92.380000000,93.990000000,92.370000000,2227472
2016-11-03T07:00:00Z,92.760000000,91.750000000,93.140000000,91.660000000,1647574
2016-11-04T07:00:00Z,92.020000000,92.810000000,93.660000000,91.540000000,1528583
2016-11-07T07:00:00Z,94.160000000,94.350000000,94.420000000,93.570000000,2066789
2016-11-08T07:00:00Z,93.830000000,94.740000000,95.190000000,93.500000000,1692133
2016-11-09T07:00:00Z,92.360000000,95.290000000,95.970000000,90.879000000,3225509
2016-11-10T07:00:00Z,95.910000000,96.870000000,98.210000000,95.780000000,2826797
2016-11-11T07:00:00Z,96.320000000,95.770000000,97.270000000,95.490000000,2013836
2016-11-14T07:00:00Z,96.400000000,96.050000000,96.850000000,95.130000000,2002259
2016-11-15T07:00:00Z,96.100000000,96.230000000,96.540000000,95.510000000,1778804
2016-11-16T07:00:00Z,95.960000000,96.360000000,96.570000000,95.860000000,1636390
2016-11-17T07:00:00Z,96.770000000,96.610000000,96.830000000,96.095000000,1118735
2016-11-18T07:00:00Z,96.230000000,95.190000000,96.230000000,95.120000000,1276934
2016-11-21T07:00:00Z,95.560000000,96.190000000,96.330000000,95.310000000,1807111
2016-11-22T07:00:00Z,96.450000000,96.620000000,96.710000000,96.030000000,1513562
2016-11-23T07:00:00Z,96.590000000,97.590000000,97.690000000,96.360000000,1286678
2016-11-25T07:00:00Z,97.630000000,98.130000000,98.130000000,97.350000000,482559
2016-11-28T07:00:00Z,97.920000000,97.350000000,97.950000000,96.770000000,1251211
2016-11-29T07:00:00Z,97.350000000,98.000000000,98.450000000,96.920000000,1467938
2016-11-30T07:00:00Z,98.460000000,95.930000000,98.690000000,95.830000000,2704322
2016-12-01T07:00:00Z,96.420000000,95.240000000,96.800000000,94.850000000,2444082
2016-12-02T07:00:00Z,95.290000000,94.580000000,95.500000000,94.150000000,2085220
2016-12-05T07:00:00Z,95.360000000,95.990000000,96.990000000,95.230000000,1634607
2016-12-06T07:00:00Z,95.980000000,96.220000000,96.363000000,95.520000000,1358018
2016-12-07T07:00:00Z,96.310000000,98.180000000,98.210000000,96.210000000,1581683
2016-12-08T07:00:00Z,98.180000000,99.410000000,99.670000000,97.880000000,1494158
2016-12-09T07:00:00Z,99.480000000,99.300000000,100.170000000,98.920000000,1355202
2016-12-12T07:00:00Z,99.070000000,98.650000000,99.850000000,97.760000000,1528911
2016-12-13T07:00:00Z,98.130000000,97.050000000,98.390000000,96.650000000,2145238
2016-12-14T07:00:00Z,97.070000000,96.170000000,97.880000000,95.910000000,1576813
2016-12-15T07:00:00Z,96.200000000,96.100000000,97.120000000,95.630000000,1684597
2016-12-16T07:00:00Z,96.070000000,95.920000000,96.700000000,95.780000000,2050117
2016-12-19T07:00:00Z,96.060000000,96.220000000,96.870000000,95.970000000,1473441
2016-12-20T07:00:00Z,96.260000000,95.640000000,96.400000000,95.560000000,1418568
2016-12-21T07:00:00Z,95.390000000,95.870000000,96.200000000,95.050000000,1189982
2016-12-22T07:00:00Z,95.940000000,95.000000000,95.990000000,94.930000000,1177536
2016-12-23T07:00:00Z,95.040000000,94.690000000,95.040000000,93.800000000,1816187
2016-12-27T07:00:00Z,95.050000000,95.850000000,95.930000000,94.880000000,1200265
2016-12-28T07:00:00Z,96.340000000,94.670000000,96.470000000,94.590000000,1155146
2016-12-29T07:00:00Z,94.700000000,95.310000000,95.320000000,94.670000000,1150148
2016-12-30T07:00:00Z,95.430000000,94.760000000,95.500000000,94.460000000,1248654
2016-12-30T07:00:00Z,95.430000000,94.760000000,95.500000000,94.460000000,1248654
2017-01-03T07:00:00Z,95.430000000,95.250000000,95.970000000,94.570000000,1358064
2017-01-04T07:00:00Z,95.710000000,97.270000000,97.520000000,95.630000000,1334473
2017-01-05T07:00:00Z,96.460000000,95.620000000,96.620000000,95.400000000,1661879
2017-01-06T07:00:00Z,95.770000000,95.590000000,96.140000000,95.290000000,1379830
2017-01-09T07:00:00Z,95.050000000,96.350000000,96.460000000,94.770000000,1454135
2017-01-10T07:00:00Z,96.070000000,96.390000000,96.650000000,95.665000000,1418749
2017-01-11T07:00:00Z,96.250000000,96.630000000,96.670000000,95.580000000,1169855
2017-01-12T07:00:00Z,96.450000000,96.870000000,96.975000000,95.800000000,1027233
2017-01-13T07:00:00Z,96.830000000,96.320000000,97.100000000,96.170000000,1237908
2017-01-17T07:00:00Z,95.790000000,95.970000000,96.080000000,94.620000000,2251585
2017-01-18T07:00:00Z,95.970000000,96.690000000,96.850000000,95.660000000,2144600
2017-01-19T07:00:00Z,97.840000000,97.500000000,98.980000000,96.000000000,3378025
2017-01-20T07:00:00Z,98.030000000,99.000000000,99.820000000,97.870000000,2805545
2017-01-23T07:00:00Z,98.740000000,100.240000000,100.310000000,98.701000000,2340664
2017-01-24T07:00:00Z,100.740000000,101.800000000,102.550000000,100.440000000,2264397
2017-01-25T07:00:00Z,102.200000000,101.080000000,102.280000000,100.880000000,2107450
2017-01-26T07:00:00Z,101.640000000,101.850000000,102.000000000,100.760000000,1591702
2017-01-27T07:00:00Z,101.690000000,102.020000000,102.122000000,101.220000000,1333600
2017-01-30T07:00:00Z,102.150000000,102.030000000,102.150000000,100.440000000,1996094
2017-01-31T07:00:00Z,101.720000000,100.010000000,101.860000000,99.290000000,2571536
2017-02-01T07:00:00Z,99.650000000,100.560000000,100.760000000,99.000000000,1643610
2017-02-02T07:00:00Z,100.510000000,100.580000000,101.080000000,100.042000000,1971552
2017-02-03T07:00:00Z,101.110000000,100.940000000,101.150000000,100.420000000,921564
2017-02-06T07:00:00Z,100.320000000,99.920000000,100.990000000,99.550000000,1605982
2017-02-07T07:00:00Z,100.040000000,100.010000000,100.820000000,99.770000000,1084109
2017-02-08T07:00:00Z,100.080000000,100.100000000,100.270000000,99.570000000,1029155
2017-02-09T07:00:00Z,100.190000000,100.130000000,100.481000000,99.790000000,726365
2017-02-10T07:00:00Z,100.200000000,100.540000000,100.950000000,100.020000000,1304232
2017-02-13T07:00:00Z,100.940000000,100.810000000,101.250000000,100.640000000,981485
2017-02-14T07:00:00Z,100.910000000,101.570000000,101.750000000,100.470000000,1530961
2017-02-15T07:00:00Z,101.000000000,101.500000000,101.670000000,100.911000000,877537
2017-02-16T07:00:00Z,101.800000000,101.770000000,101.990000000,100.990000000,878930
2017-02-17T07:00:00Z,101.710000000,102.370000000,102.370000000,100.740000000,1305967
2017-02-21T07:00:00Z,102.500000000,103.000000000,103.130000000,102.350000000,2263346
2017-02-22T07:00:00Z,102.400000000,102.810000000,103.340000000,102.320000000,1951353
2017-02-23T07:00:00Z,103.230000000,102.600000000,103.230000000,102.190000000,1521216
2017-02-24T07:00:00Z,102.130000000,103.310000000,103.365000000,101.930000000,1348643
2017-02-27T07:00:00Z,103.080000000,102.450000000,103.400000000,102.260000000,1149052
2017-02-28T07:00:00Z,102.320000000,102.430000000,102.760000000,101.960000000,1277456
2017-03-01T07:00:00Z,103.450000000,103.290000000,103.820000000,103.050000000,1680749
2017-03-02T07:00:00Z,103.300000000,102.380000000,103.300000000,102.300000000,1398884
2017-03-03T07:00:00Z,102.430000000,102.060000000,103.170000000,101.680000000,1077308
2017-03-06T07:00:00Z,101.950000000,101.200000000,101.960000000,100.960000000,928048
2017-03-07T07:00:00Z,101.140000000,100.780000000,101.245000000,100.670000000,1211903
2017-03-08T07:00:00Z,100.640000000,106.830000000,113.490000000,100.340000000,12605302
2017-03-09T07:00:00Z,106.000000000,102.930000000,106.000000000,101.420000000,5750030
2017-03-10T07:00:00Z,103.940000000,102.090000000,104.520000000,101.940000000,3039008
2017-03-13T07:00:00Z,102.260000000,102.680000000,102.730000000,101.591000000,1442701
2017-03-14T07:00:00Z,102.470000000,101.730000000,102.470000000,101.450000000,1208642
2017-03-15T07:00:00Z,102.890000000,104.040000000,104.410000000,102.190000000,1789376
2017-03-16T07:00:00Z,104.650000000,103.620000000,104.650000000,103.020000000,1194650
2017-03-17T07:00:00Z,104.390000000,104.490000000,105.000000000,103.380000000,2972931
2017-03-20T07:00:00Z,104.230000000,105.570000000,105.720000000,102.360000000,2573623
2017-03-21T07:00:00Z,105.390000000,104.480000000,106.240000000,104.430000000,2055712
2017-03-22T07:00:00Z,104.400000000,104.250000000,104.400000000,102.640000000,2044220
2017-03-23T07:00:00Z,103.930000000,104.620000000,105.460000000,103.500000000,1838753
2017-03-24T07:00:00Z,104.500000000,103.790000000,104.870000000,103.560000000,1284338
2017-03-27T07:00:00Z,102.760000000,103.820000000,104.010000000,102.200000000,1588198
2017-03-28T07:00:00Z,103.850000000,104.970000000,105.300000000,103.570000000,1084869
2017-03-29T07:00:00Z,104.890000000,105.770000000,105.950000000,104.545000000,1144139
2017-03-30T07:00:00Z,105.450000000,105.230000000,105.960000000,105.160000000,1413466
2017-03-31T07:00:00Z,104.940000000,105.080000000,105.520000000,103.939000000,1236529
2017-04-03T07:00:00Z,105.500000000,105.080000000,105.620000000,104.180000000,1317949
2017-04-04T07:00:00Z,105.080000000,104.770000000,105.290000000,104.530000000,1214226
2017-04-05T07:00:00Z,105.000000000,105.000000000,106.670000000,104.550000000,1664047
2017-04-06T07:00:00Z,105.180000000,105.270000000,105.860000000,104.990000000,1247102
2017-04-07T07:00:00Z,105.150000000,106.050000000,106.200000000,105.150000000,1116689
2017-04-10T07:00:00Z,105.890000000,105.790000000,106.410000000,105.260000000,1029701
2017-04-11T07:00:00Z,105.490000000,106.060000000,106.110000000,104.870000000,1154365
2017-04-12T07:00:00Z,105.500000000,105.060000000,105.500000000,104.521000000,1174533
2017-04-13T07:00:00Z,105.000000000,104.420000000,105.310000000,104.270000000,857460
2017-04-17T07:00:00Z,104.820000000,105.390000000,105.460000000,104.315000000,859765
2017-04-18T07:00:00Z,104.870000000,104.740000000,105.380000000,104.320000000,1148585
2017-04-19T07:00:00Z,104.970000000,105.000000000,105.800000000,104.670000000,1176519
2017-04-20T07:00:00Z,105.630000000,106.370000000,106.610000000,104.360000000,2230520
2017-04-21T07:00:00Z,106.660000000,105.940000000,107.160000000,105.940000000,2044941
2017-04-24T07:00:00Z,108.030000000,108.010000000,108.220000000,106.900000000,2096751
2017-04-25T07:00:00Z,108.180000000,110.820000000,111.060000000,108.180000000,2342580
2017-04-26T07:00:00Z,110.890000000,110.480000000,110.890000000,109.610000000,1332553
2017-04-27T07:00:00Z,110.580000000,111.290000000,111.987000000,110.300000000,1715933
2017-04-28T07:00:00Z,111.050000000,109.840000000,111.050000000,109.810000000,1046842
2017-05-01T07:00:00Z,109.670000000,109.460000000,109.950000000,109.110000000,706473
2017-05-02T07:00:00Z,109.690000000,109.470000000,113.000000000,109.090000000,1109178
2017-05-03T07:00:00Z,109.320000000,109.200000000,109.674000000,109.040000000,927419
2017-05-04T07:00:00Z,109.330000000,109.890000000,110.290000000,109.220000000,1102093
2017-05-05T07:00:00Z,110.000000000,110.560000000,111.340000000,109.830000000,1214005
2017-05-08T07:00:00Z,109.750000000,108.430000000,109.950000000,108.160000000,1310048
2017-05-09T07:00:00Z,108.470000000,107.850000000,108.720000000,107.530000000,1258564
2017-05-10T07:00:00Z,107.940000000,107.850000000,108.540000000,107.600000000,1044008
2017-05-11T07:00:00Z,107.310000000,107.460000000,107.760000000,106.270000000,1128566
2017-05-12T07:00:00Z,107.290000000,107.120000000,107.470000000,106.820000000,500457
2017-05-15T07:00:00Z,107.160000000,107.980000000,108.420000000,107.155000000,730610
2017-05-16T07:00:00Z,107.920000000,107.410000000,108.070000000,107.250000000,600377
2017-05-17T07:00:00Z,106.710000000,105.480000000,107.080000000,105.400000000,1294021
2017-05-18T07:00:00Z,105.620000000,105.390000000,106.110000000,104.900000000,1326940
2017-05-19T07:00:00Z,105.110000000,106.730000000,107.130000000,105.110000000,1081226
2017-05-22T07:00:00Z,106.950000000,106.420000000,107.182000000,106.150000000,959387
2017-05-23T07:00:00Z,106.480000000,106.700000000,107.065000000,106.090000000,794345
2017-05-24T07:00:00Z,106.800000000,106.940000000,107.440000000,106.180000000,524768
2017-05-25T07:00:00Z,107.170000000,106.910000000,107.510000000,106.570000000,1340484
2017-05-26T07:00:00Z,106.720000000,107.240000000,107.670000000,106.480000000,664697
2017-05-30T07:00:00Z,107.000000000,106.480000000,107.000000000,105.880000000,975121
2017-05-31T07:00:00Z,106.670000000,106.360000000,106.670000000,105.690000000,1696141
2017-06-01T07:00:00Z,106.490000000,109.160000000,110.470000000,106.390000000,2198866
2017-06-02T07:00:00Z,109.140000000,110.420000000,110.650000000,108.690000000,1314459
2017-06-05T07:00:00Z,110.000000000,108.360000000,110.375000000,108.310000000,1066172
2017-06-06T07:00:00Z,107.860000000,108.380000000,108.560000000,107.650000000,1258087
2017-06-07T07:00:00Z,108.570000000,107.850000000,108.750000000,107.530000000,1915135
2017-06-08T07:00:00Z,107.350000000,107.920000000,108.000000000,106.640000000,1293641
2017-06-09T07:00:00Z,108.070000000,109.930000000,109.930000000,108.070000000,1617344
2017-06-12T07:00:00Z,110.000000000,110.140000000,110.840000000,109.690000000,2196587
2017-06-13T07:00:00Z,110.060000000,111.570000000,111.580000000,109.848000000,1357642
2017-06-14T07:00:00Z,111.680000000,111.500000000,111.710000000,111.030000000,892790
2017-06-15T07:00:00Z,110.470000000,111.320000000,111.620000000,110.470000000,978970
2017-06-16T07:00:00Z,111.200000000,111.160000000,111.740000000,110.840000000,2188212
2017-06-19T07:00:00Z,111.510000000,111.110000000,111.570000000,110.970000000,1242209
2017-06-20T07:00:00Z,110.880000000,110.780000000,111.235000000,110.610000000,884301
2017-06-21T07:00:00Z,111.000000000,110.680000000,111.210000000,110.470000000,1372519
2017-06-22T07:00:00Z,110.770000000,110.570000000,110.930000000,110.400000000,1184714
2017-06-23T07:00:00Z,110.500000000,110.680000000,111.025000000,110.330000000,1442728
2017-06-26T07:00:00Z,110.550000000,110.820000000,111.060000000,110.320000000,734646
2017-06-27T07:00:00Z,110.490000000,110.490000000,111.223000000,110.490000000,956538
2017-06-28T07:00:00Z,111.000000000,111.070000000,111.300000000,110.890000000,1967432
2017-06-29T07:00:00Z,111.060000000,109.650000000,111.300000000,109.270000000,835940
2017-06-30T07:00:00Z,110.180000000,109.960000000,110.530000000,109.660000000,786673
2017-07-03T07:00:00Z,110.610000000,110.610000000,111.100000000,110.210000000,381538
2017-07-05T07:00:00Z,111.220000000,110.680000000,111.600000000,110.220000000,630808
2017-07-06T07:00:00Z,110.440000000,110.050000000,110.620000000,109.815000000,864919
2017-07-07T07:00:00Z,110.350000000,111.000000000,111.130000000,109.945000000,721029
2017-07-10T07:00:00Z,110.730000000,110.980000000,111.400000000,110.730000000,1069946
2017-07-11T07:00:00Z,111.100000000,110.970000000,111.280000000,110.550000000,750285
2017-07-12T07:00:00Z,111.670000000,111.840000000,112.180000000,111.260000000,1418865
2017-07-13T07:00:00Z,111.790000000,112.400000000,112.630000000,111.730000000,906435
2017-07-14T07:00:00Z,112.640000000,112.800000000,113.140000000,112.320000000,658121
2017-07-17T07:00:00Z,112.800000000,112.960000000,113.460000000,112.518000000,466433
2017-07-18T07:00:00Z,112.840000000,112.950000000,112.990000000,112.120000000,826464
2017-07-19T07:00:00Z,113.130000000,113.600000000,113.665000000,112.690000000,1102170
2017-07-20T07:00:00Z,109.590000000,106.720000000,109.590000000,105.830000000,4708055
2017-07-21T07:00:00Z,106.250000000,106.370000000,107.400000000,106.250000000,2676696
2017-07-24T07:00:00Z,105.190000000,105.390000000,105.840000000,104.690000000,2566988
2017-07-25T07:00:00Z,106.200000000,107.110000000,107.520000000,105.870000000,1822849
2017-07-26T07:00:00Z,107.130000000,106.750000000,107.220000000,106.610000000,1049849
2017-07-27T07:00:00Z,106.830000000,106.150000000,107.190000000,105.485000000,1896447
2017-07-28T07:00:00Z,106.150000000,106.030000000,106.540000000,105.445000000,1724437
2017-07-31T07:00:00Z,106.320000000,105.250000000,106.450000000,104.990000000,1570646
2017-08-01T07:00:00Z,105.280000000,105.110000000,105.620000000,104.630000000,2103503
2017-08-02T07:00:00Z,104.920000000,106.210000000,106.850000000,104.770000000,1974590
2017-08-03T07:00:00Z,106.460000000,104.670000000,106.460000000,103.860000000,2121560
2017-08-04T07:00:00Z,104.940000000,105.010000000,105.290000000,104.310000000,846636
2017-08-07T07:00:00Z,105.200000000,105.140000000,105.910000000,104.950000000,1143214
2017-08-08T07:00:00Z,104.260000000,103.400000000,104.430000000,103.190000000,1398246
2017-08-09T07:00:00Z,103.040000000,103.370000000,103.820000000,102.800000000,1910133
2017-08-10T07:00:00Z,102.800000000,101.330000000,103.115000000,101.220000000,2084251
2017-08-11T07:00:00Z,101.560000000,100.730000000,101.560000000,100.450000000,1536922
2017-08-14T07:00:00Z,101.710000000,102.560000000,102.800000000,101.200000000,1304048
2017-08-15T07:00:00Z,102.600000000,102.940000000,103.210000000,102.250000000,1332556
2017-08-16T07:00:00Z,103.170000000,103.740000000,103.880000000,102.735000000,1319742
2017-08-17T07:00:00Z,103.560000000,102.680000000,103.980000000,102.680000000,1009604
2017-08-18T07:00:00Z,102.430000000,102.080000000,102.850000000,101.950000000,1778770
2017-08-21T07:00:00Z,102.100000000,102.390000000,102.530000000,101.720000000,1351627
2017-08-22T07:00:00Z,102.660000000,104.540000000,104.745000000,102.370000000,995787
2017-08-23T07:00:00Z,104.020000000,103.630000000,104.420000000,103.590000000,891459
2017-08-24T07:00:00Z,103.910000000,103.710000000,104.570000000,103.600000000,685316
2017-08-25T07:00:00Z,103.980000000,103.720000000,104.090000000,103.230000000,863929
2017-08-28T07:00:00Z,103.880000000,104.150000000,104.360000000,103.570000000,809406
2017-08-29T07:00:00Z,103.450000000,103.860000000,104.040000000,103.030000000,866886
2017-08-30T07:00:00Z,103.620000000,103.810000000,104.300000000,103.460000000,1301360
2017-08-31T07:00:00Z,104.220000000,104.320000000,104.470000000,103.820000000,1714443
2017-09-01T07:00:00Z,104.800000000,104.590000000,104.920000000,104.100000000,997596
2017-09-05T07:00:00Z,104.460000000,103.440000000,104.700000000,103.320000000,1009308
2017-09-06T07:00:00Z,103.920000000,104.200000000,104.640000000,103.100000000,1589333
2017-09-07T07:00:00Z,104.370000000,104.010000000,104.370000000,103.100000000,938689
2017-09-08T07:00:00Z,103.630000000,103.590000000,103.940000000,101.610000000,1210286
2017-09-11T07:00:00Z,104.480000000,105.900000000,106.110000000,103.940000000,1038935
2017-09-12T07:00:00Z,106.080000000,106.690000000,106.750000000,105.550000000,797466
2017-09-13T07:00:00Z,106.420000000,105.060000000,106.540000000,104.750000000,1370412
2017-09-14T07:00:00Z,105.250000000,106.480000000,106.620000000,104.600000000,1353068
2017-09-15T07:00:00Z,106.250000000,106.300000000,106.580000000,105.960000000,1856416
2017-09-18T07:00:00Z,106.200000000,106.800000000,106.930000000,105.970000000,1278714
2017-09-19T07:00:00Z,107.000000000,108.340000000,108.380000000,106.770000000,1034237
2017-09-20T07:00:00Z,108.520000000,108.810000000,109.270000000,108.180000000,1442149
2017-09-21T07:00:00Z,108.660000000,108.990000000,109.900000000,108.660000000,1018923
2017-09-22T07:00:00Z,108.960000000,108.760000000,109.180000000,108.470000000,1123327
2017-09-25T07:00:00Z,108.230000000,109.160000000,110.160000000,108.000000000,1914062
2017-09-26T07:00:00Z,109.390000000,108.510000000,109.740000000,108.130000000,2132748
2017-09-27T07:00:00Z,108.640000000,107.990000000,108.930000000,107.810000000,1509115
2017-09-28T07:00:00Z,107.920000000,108.850000000,108.930000000,107.700000000,1592573
2017-09-29T07:00:00Z,108.740000000,108.660000000,109.560000000,108.420000000,1749282
2017-10-02T07:00:00Z,108.660000000,111.000000000,111.160000000,108.428000000,1329388
