2012-01-03T07:00:00Z,50.305000000,50.725000000,51.065000000,50.200000000,5597392
2012-01-04T07:00:00Z,50.730000000,50.795000000,50.995000000,50.310000000,4918374
2012-01-05T07:00:00Z,50.575000000,51.075000000,51.255000000,49.910000000,5075196
2012-01-06T07:00:00Z,51.125000000,51.215000000,51.885000000,51.000000000,4493518
2012-01-09T07:00:00Z,51.235000000,51.085000000,51.530300000,50.750000000,3525578
2012-01-10T07:00:00Z,52.695000000,52.760000000,53.633900000,52.450000000,6241432
2012-01-11T07:00:00Z,52.390000000,51.585000000,52.745000000,51.475500000,4477078
2012-01-12T07:00:00Z,51.815000000,51.940000000,52.350000000,51.270000000,4659864
2012-01-13T07:00:00Z,51.335000000,51.520000000,51.725000000,50.715000000,3482734
2012-01-17T07:00:00Z,52.350000000,51.860000000,52.555000000,51.330000000,3053918
2012-01-18T07:00:00Z,51.810000000,52.685000000,52.910000000,51.405000000,3216936
2012-01-19T07:00:00Z,52.845000000,52.540000000,53.265000000,52.340000000,5439604
2012-01-20T07:00:00Z,52.435000000,51.580000000,52.485000000,51.220000000,5570986
2012-01-23T07:00:00Z,52.415000000,52.800000000,53.315000000,52.185000000,5468932
2012-01-24T07:00:00Z,52.315000000,52.275000000,52.445000000,51.750000000,3867020
2012-01-25T07:00:00Z,52.140000000,53.405000000,53.600000000,51.510000000,4331142
2012-01-26T07:00:00Z,53.645100000,52.375000000,53.750000000,52.115000000,4547578
2012-01-27T07:00:00Z,52.165000000,52.060000000,52.630000000,51.745000000,3198576
2012-01-30T07:00:00Z,51.505000000,52.655000000,52.715000000,51.085000000,4345510
2012-01-31T07:00:00Z,52.785000000,53.070000000,53.135000000,52.350000000,5579562
2012-02-01T07:00:00Z,53.475000000,52.950000000,53.490000000,52.340000000,6657132
2012-02-02T07:00:00Z,52.825000000,53.240000000,54.065000000,52.482500000,4281372
2012-02-03T07:00:00Z,54.015000000,54.545000000,55.060000000,53.550000000,4429684
2012-02-06T07:00:00Z,54.735000000,55.030000000,55.275000000,54.385000000,6138838
2012-02-07T07:00:00Z,55.000000000,55.565000000,55.750000000,54.525000000,3659334
2012-02-08T07:00:00Z,55.720000000,55.710000000,55.845000000,54.775000000,3090668
2012-02-09T07:00:00Z,55.525000000,56.225000000,56.830000000,55.440000000,3965316
2012-02-10T07:00:00Z,55.385000000,55.915000000,55.915000000,55.080000000,3687270
2012-02-13T07:00:00Z,56.270000000,56.690000000,56.825000000,56.090000000,3973456
2012-02-14T07:00:00Z,56.580000000,56.875000000,56.911300000,56.184800000,4840904
2012-02-15T07:00:00Z,57.250000000,57.420000000,57.950000000,56.675000000,5990786
2012-02-16T07:00:00Z,57.495000000,58.810000000,59.405000000,57.265000000,6610116
2012-02-17T07:00:00Z,59.535000000,57.175000000,59.985000000,56.745000000,12339778
2012-02-21T07:00:00Z,57.990000000,57.825000000,58.495000000,57.495000000,6831784
2012-02-22T07:00:00Z,57.980000000,57.830000000,58.755000000,57.782500000,5727740
2012-02-23T07:00:00Z,57.925000000,58.250000000,58.300000000,57.250000000,4009084
2012-02-24T07:00:00Z,58.330000000,58.775000000,59.040000000,58.095000000,3362094
2012-02-27T07:00:00Z,58.665000000,57.810000000,58.900000000,57.810000000,4583816
2012-02-28T07:00:00Z,57.960000000,58.305000000,58.600000000,57.750000000,4872132
2012-02-29T07:00:00Z,58.365000000,56.930000000,58.600000000,56.690000000,6444860
2012-03-01T07:00:00Z,57.125000000,58.455000000,58.505000000,57.125000000,5143782
2012-03-02T07:00:00Z,58.200000000,56.950000000,58.390000000,56.540000000,4699382
2012-03-05T07:00:00Z,56.755000000,56.600000000,56.812000000,55.680000000,3173492
2012-03-06T07:00:00Z,55.560000000,56.360000000,56.405000000,55.110000000,5258522
2012-03-07T07:00:00Z,56.360000000,56.570000000,56.834900000,56.015500000,3896408
2012-03-08T07:00:00Z,57.360000000,57.205000000,57.660000000,56.660000000,3129890
2012-03-09T07:00:00Z,57.250000000,57.490000000,57.875000000,57.030000000,2713608
2012-03-12T07:00:00Z,57.620000000,56.865000000,57.620000000,56.260000000,2890566
2012-03-13T07:00:00Z,56.925100000,58.425000000,58.470000000,56.510000000,5214072
2012-03-14T07:00:00Z,58.405000000,57.340000000,58.475000000,57.040000000,3395246
2012-03-15T07:00:00Z,57.420000000,57.815000000,58.135000000,57.025000000,3907334
2012-03-16T07:00:00Z,58.180000000,58.390000000,58.935000000,57.895000000,5474412
2012-03-19T07:00:00Z,58.325000000,58.695000000,58.985000000,58.055000000,3386092
2012-03-20T07:00:00Z,58.070000000,57.355000000,58.070000000,57.075000000,3452234
2012-03-21T07:00:00Z,57.355000000,56.905000000,57.550000000,56.535000000,3303304
2012-03-22T07:00:00Z,56.180000000,55.175000000,56.570000000,54.930000000,4562490
2012-03-23T07:00:00Z,55.240000000,55.865000000,56.327500000,55.080000000,4598970
2012-03-26T07:00:00Z,56.380000000,56.080000000,56.600000000,55.805000000,2741234
2012-03-27T07:00:00Z,56.230000000,55.640000000,56.265000000,55.457500000,2920736
2012-03-28T07:00:00Z,55.370000000,54.815000000,55.475000000,54.250000000,3495768
2012-03-29T07:00:00Z,54.245000000,54.510000000,54.630000000,53.575000000,2885434
2012-03-30T07:00:00Z,54.740000000,55.550000000,55.740000000,54.380000000,3543936
2012-04-02T07:00:00Z,55.495000000,56.675000000,57.165000000,55.160000000,3899166
2012-04-03T07:00:00Z,56.315000000,56.780000000,56.850000000,56.085000000,4647682
2012-04-04T07:00:00Z,56.030000000,55.260000000,56.195000000,54.850000000,3127606
2012-04-05T07:00:00Z,55.060000000,54.590000000,55.735000000,54.425000000,4629708
2012-04-09T07:00:00Z,53.475000000,53.720000000,54.015000000,53.305000000,5445072
2012-04-10T07:00:00Z,53.720000000,52.000000000,53.860000000,51.905000000,6604090
2012-04-11T07:00:00Z,52.590000000,51.475000000,52.760000000,51.255000000,6017306
2012-04-12T07:00:00Z,51.500000000,52.610000000,52.825000000,51.470000000,6345196
2012-04-13T07:00:00Z,52.365000000,51.665000000,52.650000000,51.550000000,3019886
2012-04-16T07:00:00Z,51.930000000,51.385000000,52.560000000,50.915000000,3074478
2012-04-17T07:00:00Z,51.960000000,52.400000000,52.655000000,51.765000000,4109268
2012-04-18T07:00:00Z,52.195000000,52.085000000,52.490000000,51.785000000,3813492
2012-04-19T07:00:00Z,52.150000000,51.980000000,52.645000000,51.655000000,3122084
2012-04-20T07:00:00Z,52.445000000,51.515000000,52.750000000,51.395000000,3376428
2012-04-23T07:00:00Z,50.305000000,51.800000000,51.885000000,50.295000000,3772132
2012-04-24T07:00:00Z,52.055000000,52.225000000,52.465000000,51.700000000,4512290
2012-04-25T07:00:00Z,52.690000000,53.215000000,53.255000000,52.295000000,5718230
2012-04-26T07:00:00Z,53.210000000,54.260000000,54.440500000,53.005100000,4686946
2012-04-27T07:00:00Z,54.505000000,54.510000000,54.620000000,54.050000000,3888006
2012-04-30T07:00:00Z,54.440000000,54.905000000,54.970000000,53.920000000,3001966
2012-05-01T07:00:00Z,55.150000000,55.615000000,56.120000000,54.900000000,3554160
2012-05-02T07:00:00Z,54.950000000,54.640000000,54.950000000,54.110000000,4145592
2012-05-03T07:00:00Z,54.500000000,53.855000000,54.970000000,53.610000000,3884380
2012-05-04T07:00:00Z,53.200000000,52.645000000,53.600000000,52.190000000,4335460
2012-05-07T07:00:00Z,52.235000000,52.385000000,52.925000000,51.645000000,3269498
2012-05-08T07:00:00Z,51.810000000,51.995000000,52.095000000,50.205000000,4352908
2012-05-09T07:00:00Z,51.905000000,52.550000000,52.840000000,50.380000000,7551874
2012-05-10T07:00:00Z,53.370000000,53.255000000,53.665000000,52.755000000,5338906
2012-05-11T07:00:00Z,52.740000000,52.115000000,53.275000000,51.955000000,4472978
2012-05-14T07:00:00Z,51.450000000,50.520000000,51.450000000,50.440000000,3668022
2012-05-15T07:00:00Z,50.495000000,49.605000000,50.849600000,49.320000000,3837960
2012-05-16T07:00:00Z,49.830000000,49.475000000,50.800000000,49.275000000,3981298
2012-05-17T07:00:00Z,49.455000000,48.670000000,49.660000000,48.580200000,3874818
2012-05-18T07:00:00Z,48.945000000,48.155000000,49.310000000,47.890000000,4443086
2012-05-21T07:00:00Z,48.665000000,50.100000000,50.130000000,48.645000000,4474154
2012-05-22T07:00:00Z,50.795000000,50.665000000,51.735000000,50.235000000,5604508
2012-05-23T07:00:00Z,50.145000000,50.850000000,50.895000000,48.890000000,5439688
2012-05-24T07:00:00Z,51.000000000,50.395000000,51.195000000,49.570000000,3806012
2012-05-25T07:00:00Z,50.280000000,50.875000000,51.215000000,50.280000000,3560940
2012-05-29T07:00:00Z,52.225000000,52.430000000,52.660000000,51.580000000,4653286
2012-05-30T07:00:00Z,51.670000000,50.495000000,51.670000000,49.950000000,5560918
2012-05-31T07:00:00Z,50.375000000,49.650000000,50.425000000,48.200000000,7351008
2012-06-01T07:00:00Z,47.940000000,45.835000000,48.070000000,45.670000000,13415978
2012-06-04T07:00:00Z,45.980000000,45.200000000,46.085000000,44.425000000,10075174
2012-06-05T07:00:00Z,44.805000000,45.935000000,46.115000000,44.785000000,6587282
2012-06-06T07:00:00Z,46.520000000,47.460000000,47.480000000,46.415000000,5507880
2012-06-07T07:00:00Z,48.290000000,47.725000000,48.700000000,47.205000000,6558948
2012-06-08T07:00:00Z,46.910000000,46.940000000,47.065000000,45.880000000,4717774
2012-06-11T07:00:00Z,47.675000000,45.965000000,48.050000000,45.900000000,4168134
2012-06-12T07:00:00Z,46.305000000,47.085000000,47.185000000,46.115000000,3857286
2012-06-13T07:00:00Z,46.895000000,46.350000000,47.615000000,46.010000000,4524566
2012-06-14T07:00:00Z,46.450000000,47.230000000,47.475000000,46.110000000,5099168
2012-06-15T07:00:00Z,47.445000000,48.320000000,48.387500000,46.955000000,5810232
2012-06-18T07:00:00Z,48.015000000,47.365000000,48.085000000,47.180000000,4492438
2012-06-19T07:00:00Z,47.845000000,47.975000000,48.160000000,47.290000000,4502044
2012-06-20T07:00:00Z,48.070000000,46.470000000,48.385000000,46.070000000,6198874
2012-06-21T07:00:00Z,46.425000000,43.240000000,46.635000000,43.170000000,11919210
2012-06-22T07:00:00Z,43.845000000,43.810000000,43.985000000,42.935000000,6631754
2012-06-25T07:00:00Z,42.845000000,42.450000000,42.940000000,41.830000000,6198244
2012-06-26T07:00:00Z,42.460000000,41.980000000,42.780000000,41.240000000,7419694
2012-06-27T07:00:00Z,42.125000000,42.865000000,43.085000000,42.040000000,10074636
2012-06-28T07:00:00Z,42.600000000,42.580000000,42.920000000,41.945000000,8045020
2012-06-29T07:00:00Z,43.975000000,45.055000000,45.130000000,43.785000000,9952728
2012-07-02T07:00:00Z,44.770000000,44.470000000,44.970000000,43.770000000,3431766
2012-07-03T07:00:00Z,45.000000000,47.445000000,47.500000000,45.000000000,5690250
2012-07-05T07:00:00Z,47.040000000,46.000000000,47.250000000,45.880000000,4101796
2012-07-06T07:00:00Z,44.885000000,45.320000000,45.675000000,44.535000000,3443148
2012-07-09T07:00:00Z,45.205000000,45.745000000,46.435000000,45.094500000,4714948
2012-07-10T07:00:00Z,45.735000000,44.675000000,45.980000000,44.375000000,4704358
2012-07-11T07:00:00Z,44.855000000,45.940000000,46.310000000,44.855000000,5386422
2012-07-12T07:00:00Z,45.080000000,45.525000000,45.920000000,44.545000000,5869594
2012-07-13T07:00:00Z,45.685000000,46.465000000,46.540000000,45.600000000,3703160
2012-07-16T07:00:00Z,46.215000000,46.620000000,46.920000000,45.645000000,3598956
2012-07-17T07:00:00Z,47.090000000,47.620000000,47.715000000,46.165000000,5094892
2012-07-18T07:00:00Z,47.425000000,48.350000000,48.715000000,47.275000000,5118010
2012-07-19T07:00:00Z,48.595000000,49.125000000,49.315000000,48.385000000,6149784
2012-07-20T07:00:00Z,48.735000000,49.615000000,49.645000000,48.125000000,5497386
2012-07-23T07:00:00Z,48.315000000,48.600000000,48.740000000,47.115500000,6470266
2012-07-24T07:00:00Z,48.645000000,47.750000000,48.950000000,47.206100000,3716312
2012-07-25T07:00:00Z,48.245000000,47.845000000,48.365000000,47.105000000,3024334
2012-07-26T07:00:00Z,48.670000000,48.710000000,49.290000000,48.130000000,4041784
2012-07-27T07:00:00Z,48.985000000,50.505000000,50.735000000,48.725000000,4790702
2012-07-30T07:00:00Z,50.340000000,49.780000000,50.810000000,49.215000000,3378358
2012-07-31T07:00:00Z,49.710000000,49.005000000,49.950000000,48.975000000,3237682
2012-08-01T07:00:00Z,49.465000000,50.225000000,50.595000000,48.520000000,4492532
2012-08-02T07:00:00Z,49.065000000,48.060000000,49.565000000,47.637500000,4969118
2012-08-03T07:00:00Z,51.527500000,53.375000000,54.375000000,51.070000000,10517304
2012-08-06T07:00:00Z,53.485000000,52.870000000,53.665000000,52.755000000,5040146
2012-08-07T07:00:00Z,52.865000000,54.370000000,54.750000000,52.785000000,4976142
2012-08-08T07:00:00Z,53.710000000,53.950000000,54.530000000,53.705000000,3798574
2012-08-09T07:00:00Z,53.765000000,54.705000000,55.400000000,53.715000000,4150640
2012-08-10T07:00:00Z,54.055000000,54.995000000,55.180000000,54.000000000,3020296
2012-08-13T07:00:00Z,55.450000000,54.650000000,55.450000000,54.410000000,2664046
2012-08-14T07:00:00Z,55.130000000,55.175000000,55.555000000,54.855000000,3886408
2012-08-15T07:00:00Z,54.840000000,54.910000000,55.365000000,54.485000000,2989184
2012-08-16T07:00:00Z,54.880000000,55.495000000,55.540000000,54.700000000,3037014
2012-08-17T07:00:00Z,55.665000000,55.595000000,55.860000000,55.050000000,2636572
2012-08-20T07:00:00Z,55.755000000,54.785000000,55.780000000,54.585000000,2584130
2012-08-21T07:00:00Z,55.140000000,54.385000000,55.425000000,54.135000000,3073856
2012-08-22T07:00:00Z,54.275000000,54.455000000,54.600000000,53.550000000,3106268
2012-08-23T07:00:00Z,54.375000000,53.505000000,54.590000000,53.220000000,2864590
2012-08-24T07:00:00Z,53.480000000,54.455000000,54.590000000,53.285000000,4370234
2012-08-27T07:00:00Z,54.490000000,54.585000000,54.979000000,54.080000000,2816022
2012-08-28T07:00:00Z,54.620000000,54.410000000,54.960000000,54.020000000,3514506
2012-08-29T07:00:00Z,54.440000000,54.025000000,54.490000000,53.735000000,2580162
2012-08-30T07:00:00Z,53.725000000,52.945000000,53.725000000,52.724200000,2562720
2012-08-31T07:00:00Z,53.495000000,54.150000000,54.305000000,53.050000000,3420114
2012-09-04T07:00:00Z,54.130000000,54.660000000,54.875000000,53.595000000,4144018
2012-09-05T07:00:00Z,54.540000000,54.270000000,54.755000000,54.225000000,3174036
2012-09-06T07:00:00Z,54.910000000,56.205000000,56.605000000,54.802000000,4161270
2012-09-07T07:00:00Z,55.475000000,56.440000000,56.640000000,55.365000000,4704504
2012-09-10T07:00:00Z,56.500000000,56.200000000,57.235000000,56.045000000,3534950
2012-09-11T07:00:00Z,56.405000000,56.215000000,56.730000000,55.965000000,3332538
2012-09-12T07:00:00Z,56.425000000,56.490000000,56.970000000,55.795000000,3304952
2012-09-13T07:00:00Z,56.715000000,57.590000000,58.059900000,55.900000000,3996842
2012-09-14T07:00:00Z,57.870000000,58.810000000,59.845000000,57.870000000,3857326
2012-09-17T07:00:00Z,58.705000000,58.200000000,59.115000000,57.940000000,2922180
2012-09-18T07:00:00Z,58.115000000,57.940000000,58.410000000,57.285000000,2282338
2012-09-19T07:00:00Z,57.830000000,56.785000000,57.895000000,56.750000000,3287918
2012-09-20T07:00:00Z,56.455000000,56.775000000,57.040000000,55.745000000,4148196
2012-09-21T07:00:00Z,57.285000000,56.975000000,57.370000000,56.624900000,4020194
2012-09-24T07:00:00Z,56.300000000,56.605000000,56.870000000,56.080000000,2492474
2012-09-25T07:00:00Z,56.850000000,56.210000000,57.205000000,56.130000000,3068386
2012-09-26T07:00:00Z,55.935000000,55.300000000,56.040000000,55.200000000,2732602
2012-09-27T07:00:00Z,55.880000000,56.600000000,56.885000000,55.750000000,1953656
2012-09-28T07:00:00Z,56.300000000,56.025000000,56.500000000,55.570000000,2295368
2012-10-01T07:00:00Z,56.495000000,57.095000000,57.345000000,56.455000000,3421822
2012-10-02T07:00:00Z,57.395000000,57.570000000,57.640000000,56.935000000,3617118
2012-10-03T07:00:00Z,57.415000000,55.540000000,57.500000000,55.400000000,4237820
2012-10-04T07:00:00Z,55.965000000,55.710000000,56.125000000,55.325000000,4041116
2012-10-05T07:00:00Z,55.755000000,54.955000000,56.200000000,54.750000000,3295776
2012-10-08T07:00:00Z,54.430000000,54.910000000,54.985000000,54.319000000,2262920
2012-10-09T07:00:00Z,54.955000000,55.525000000,55.900000000,54.641000000,2638706
2012-10-10T07:00:00Z,55.425000000,54.750000000,55.675000000,54.595000000,2658308
2012-10-11T07:00:00Z,55.205000000,54.915000000,55.635000000,54.800000000,1994872
2012-10-12T07:00:00Z,54.985000000,54.390000000,55.155000000,53.935000000,2558306
2012-10-15T07:00:00Z,54.330000000,55.125000000,55.290000000,53.880000000,2978826
2012-10-16T07:00:00Z,55.855000000,56.870000000,56.945000000,55.755000000,3286006
2012-10-17T07:00:00Z,57.270000000,57.620000000,57.825000000,56.785000000,2874130
2012-10-18T07:00:00Z,57.270000000,57.375000000,57.540000000,56.870000000,2171414
2012-10-19T07:00:00Z,57.265000000,56.535000000,57.725000000,56.285100000,3023954
2012-10-22T07:00:00Z,56.390000000,56.055000000,56.470000000,55.215000000,3717340
2012-10-23T07:00:00Z,55.035000000,55.080000000,55.450000000,54.515000000,4000902
2012-10-24T07:00:00Z,55.440000000,55.350000000,55.770000000,54.885000000,3774024
2012-10-25T07:00:00Z,56.025000000,56.210000000,56.220000000,55.455000000,2301416
2012-10-26T07:00:00Z,56.145000000,57.045000000,57.250000000,56.005000000,4463604
2012-10-31T07:00:00Z,57.125000000,58.245000000,58.285000000,57.120000000,4601692
2012-11-01T07:00:00Z,58.245000000,58.440000000,59.300000000,58.020000000,3661848
2012-11-02T07:00:00Z,58.885000000,57.600000000,59.255000000,57.345000000,5007576
2012-11-05T07:00:00Z,57.275000000,58.405000000,58.535000000,57.275000000,4383494
2012-11-06T07:00:00Z,61.695000000,60.990000000,62.245000000,60.650000000,8551854
2012-11-07T07:00:00Z,60.000000000,60.000000000,60.475000000,59.665000000,6048180
2012-11-08T07:00:00Z,59.935000000,57.885000000,60.385000000,57.855000000,4515632
2012-11-09T07:00:00Z,57.815000000,57.260000000,58.385000000,57.225000000,4984798
2012-11-12T07:00:00Z,57.545000000,57.380000000,57.800000000,56.720000000,2177426
2012-11-13T07:00:00Z,56.950000000,57.640000000,58.570000000,56.845000000,3885300
2012-11-14T07:00:00Z,57.690000000,56.680000000,57.950000000,56.500000000,3099860
2012-11-15T07:00:00Z,56.720000000,58.080000000,58.275000000,56.660000000,4761088
2012-11-16T07:00:00Z,58.625000000,58.335000000,58.730000000,57.395000000,5257640
2012-11-19T07:00:00Z,59.105000000,59.305000000,60.400000000,58.910000000,3985976
2012-11-20T07:00:00Z,59.195000000,58.700000000,59.270000000,58.275000000,2629274
2012-11-21T07:00:00Z,58.895000000,59.070000000,59.270000000,58.700200000,2230172
2012-11-23T07:00:00Z,59.250000000,59.495000000,59.575000000,58.825000000,1168766
2012-11-26T07:00:00Z,58.725000000,58.325000000,58.915000000,57.800000000,2502262
2012-11-27T07:00:00Z,57.770000000,57.540000000,58.030000000,57.220000000,5118278
2012-11-28T07:00:00Z,57.045000000,58.175000000,58.295000000,56.360000000,3224098
2012-11-29T07:00:00Z,58.800000000,58.820000000,59.210000000,58.405000000,2837962
2012-11-30T07:00:00Z,58.700000000,58.810000000,59.205000000,58.523000000,2903860
2012-12-03T07:00:00Z,59.120000000,58.620000000,59.550000000,58.565000000,2572868
2012-12-04T07:00:00Z,58.470000000,58.590000000,59.000000000,58.345000000,1801368
2012-12-05T07:00:00Z,58.750000000,59.360000000,59.775000000,58.672000000,3447790
2012-12-06T07:00:00Z,59.145000000,59.180000000,59.375000000,58.500000000,2416564
2012-12-07T07:00:00Z,59.355000000,58.675000000,59.355000000,58.465000000,2670264
2012-12-10T07:00:00Z,58.600000000,58.865000000,58.930000000,58.285000000,2132308
2012-12-11T07:00:00Z,59.160000000,59.365000000,59.750000000,58.985000000,2716558
2012-12-12T07:00:00Z,59.600000000,60.370000000,60.685000000,59.360000000,3624816
2012-12-13T07:00:00Z,60.155000000,59.255000000,60.325000000,59.175000000,3789060
2012-12-14T07:00:00Z,59.190000000,59.495000000,59.900000000,59.020000000,2401686
2012-12-17T07:00:00Z,59.695000000,60.485000000,60.490000000,59.390000000,2499546
2012-12-18T07:00:00Z,60.540000000,61.960000000,62.125000000,60.500000000,3711138
2012-12-19T07:00:00Z,61.800000000,61.225000000,62.010000000,61.220000000,3038634
2012-12-20T07:00:00Z,61.395000000,62.185000000,62.250000000,61.200000000,3064634
2012-12-21T07:00:00Z,61.210000000,61.785000000,62.081300000,60.940000000,4666680
2012-12-24T07:00:00Z,61.555000000,61.385000000,62.100000000,61.340000000,1561242
2012-12-26T07:00:00Z,61.570000000,60.775000000,61.575000000,60.610000000,2096580
2012-12-27T07:00:00Z,60.990000000,60.815000000,61.075000000,59.780000000,3202090
2012-12-28T07:00:00Z,60.280000000,59.305000000,60.465000000,59.250000000,2196300
2012-12-31T07:00:00Z,59.055000000,60.395000000,60.490000000,59.000000000,3561788
2012-12-31T07:00:00Z,59.055000000,60.395000000,60.490000000,59.000000000,3561788
2013-01-02T07:00:00Z,61.700000000,61.840000000,61.840000000,60.720000000,3665224
2013-01-03T07:00:00Z,61.745000000,62.090000000,62.745000000,61.235000000,2929912
2013-01-04T07:00:00Z,62.115000000,62.900000000,63.125000000,61.975000000,2519806
2013-01-07T07:00:00Z,62.605000000,62.995000000,63.050000000,62.075000000,2857708
2013-01-08T07:00:00Z,62.875000000,62.070000000,62.995000000,61.590000000,3126128
2013-01-09T07:00:00Z,62.180000000,62.315000000,62.585000000,61.845000000,1755162
2013-01-10T07:00:00Z,62.700000000,63.050000000,63.065000000,62.280000000,2277448
2013-01-11T07:00:00Z,63.030000000,62.815000000,63.225000000,62.500000000,2268214
2013-01-14T07:00:00Z,62.825000000,62.330000000,63.140000000,62.115000000,2066478
2013-01-15T07:00:00Z,62.005000000,62.550000000,62.750000000,61.875000000,3346914
2013-01-16T07:00:00Z,62.415000000,62.685000000,62.750000000,62.195000000,3009712
2013-01-17T07:00:00Z,63.000000000,63.015000000,63.275000000,62.445000000,3449088
2013-01-18T07:00:00Z,63.170000000,63.395000000,63.540000000,62.610000000,3532894
2013-01-22T07:00:00Z,63.475000000,63.250000000,63.670000000,62.450000000,3831324
2013-01-23T07:00:00Z,63.080000000,62.375000000,63.295000000,62.250000000,2281992
2013-01-24T07:00:00Z,62.450000000,62.495000000,63.200000000,62.395000000,2723922
2013-01-25T07:00:00Z,62.685000000,62.635000000,63.270000000,62.270000000,2365358
2013-01-28T07:00:00Z,62.905000000,62.100000000,62.905000000,61.775000000,2718232
2013-01-29T07:00:00Z,62.330000000,63.470000000,63.595000000,62.005000000,2821600
2013-01-30T07:00:00Z,63.585000000,63.160000000,64.715000000,63.085000000,3194820
2013-01-31T07:00:00Z,62.750000000,62.490000000,62.985000000,62.250000000,3536214
2013-02-01T07:00:00Z,63.320000000,64.300000000,64.395000000,62.495000000,3367520
2013-02-04T07:00:00Z,63.835000000,63.645000000,63.895000000,63.300000000,2681156
2013-02-05T07:00:00Z,64.325000000,64.410000000,64.635000000,63.952500000,2044350
2013-02-06T07:00:00Z,63.865000000,64.835000000,64.960000000,63.765000000,1729270
2013-02-07T07:00:00Z,64.860000000,64.885000000,65.055000000,64.025000000,2315794
2013-02-08T07:00:00Z,65.070100000,66.640000000,66.695000000,65.070000000,3602500
2013-02-11T07:00:00Z,66.645000000,66.670000000,66.842500000,66.060000000,3396172
2013-02-12T07:00:00Z,66.750000000,67.050000000,67.345000000,66.400000000,3464138
2013-02-13T07:00:00Z,67.050000000,66.800000000,67.200000000,66.350000000,3178004
2013-02-14T07:00:00Z,69.035000000,66.665000000,69.100000000,66.540000000,5911818
2013-02-15T07:00:00Z,66.630000000,64.595000000,67.000000000,63.890000000,6349540
2013-02-19T07:00:00Z,65.280000000,65.700000000,65.790000000,65.020000000,3936420
2013-02-20T07:00:00Z,65.715000000,63.695000000,65.870000000,63.660000000,4943782
2013-02-21T07:00:00Z,63.245000000,62.020000000,63.530000000,61.775000000,5828468
2013-02-22T07:00:00Z,62.500000000,62.670000000,62.920000000,61.845000000,4546082
2013-02-25T07:00:00Z,62.835000000,60.885000000,63.480000000,60.825000000,5190652
2013-02-26T07:00:00Z,61.185000000,61.750000000,61.925000000,60.380100000,3928572
2013-02-27T07:00:00Z,61.555000000,63.460000000,63.565000000,61.385000000,4719778
2013-02-28T07:00:00Z,63.220000000,62.855000000,63.979900000,62.800000000,4327746
2013-03-01T07:00:00Z,62.320000000,61.500000000,62.675000000,61.115000000,5726840
2013-03-04T07:00:00Z,61.390000000,60.895000000,61.440000000,60.500000000,3752444
2013-03-05T07:00:00Z,61.540000000,62.350000000,62.525000000,61.210000000,3915594
2013-03-06T07:00:00Z,62.590000000,62.800000000,62.975000000,62.160000000,4088744
2013-03-07T07:00:00Z,62.875000000,63.780000000,64.115500000,62.685000000,2445000
2013-03-08T07:00:00Z,64.095000000,64.340000000,64.460000000,63.745000000,2449376
2013-03-11T07:00:00Z,64.165000000,64.330000000,64.685000000,63.705500000,2083968
2013-03-12T07:00:00Z,64.750000000,65.040000000,65.200000000,64.560000000,2586108
2013-03-13T07:00:00Z,65.000000000,64.940000000,65.588500000,64.745000000,2634902
2013-03-14T07:00:00Z,65.245000000,65.915000000,66.005000000,65.135000000,2847736
2013-03-15T07:00:00Z,65.735000000,65.210000000,66.420000000,65.205000000,4978348
2013-03-18T07:00:00Z,64.455000000,64.465000000,65.210000000,64.160000000,2773752
2013-03-19T07:00:00Z,64.550000000,63.635000000,64.760000000,63.355000000,2513458
2013-03-20T07:00:00Z,64.180000000,63.120000000,64.399000000,63.085000000,3788112
2013-03-21T07:00:00Z,62.635000000,61.950000000,63.425000000,61.925000000,4030350
2013-03-22T07:00:00Z,62.220000000,62.490000000,62.535000000,61.810000000,2790590
2013-03-25T07:00:00Z,62.885000000,61.960000000,63.400000000,61.515000000,3086834
2013-03-26T07:00:00Z,62.240000000,64.450000000,64.695000000,62.185000000,4867882
2013-03-27T07:00:00Z,63.945000000,64.100000000,64.335000000,63.095000000,3713620
2013-03-28T07:00:00Z,64.085000000,64.035000000,64.575000000,63.715100000,3041420
2013-04-01T07:00:00Z,64.035000000,64.255000000,64.415000000,63.315000000,2257386
2013-04-02T07:00:00Z,64.400000000,64.525000000,65.024900000,64.017500000,3105246
2013-04-03T07:00:00Z,64.525000000,63.050000000,64.710000000,62.875000000,3338488
2013-04-04T07:00:00Z,63.035000000,61.430000000,63.035000000,61.315000000,4745632
2013-04-05T07:00:00Z,60.500000000,62.375000000,62.435000000,60.380000000,4257046
2013-04-08T07:00:00Z,62.445000000,63.445000000,63.610000000,62.265000000,2525072
2013-04-09T07:00:00Z,63.535000000,64.125000000,64.605000000,63.100000000,2291138
2013-04-10T07:00:00Z,64.280000000,64.310000000,65.100000000,64.240000000,2723054
2013-04-11T07:00:00Z,64.505000000,64.130000000,64.830000000,63.860000000,2956636
2013-04-12T07:00:00Z,63.650000000,62.065000000,63.900000000,62.005000000,4052180
2013-04-15T07:00:00Z,61.180000000,58.095000000,61.185000000,58.065000000,5780756
2013-04-16T07:00:00Z,58.915000000,59.575000000,59.820000000,57.910000000,4536828
2013-04-17T07:00:00Z,58.705000000,57.410000000,58.930000000,56.730000000,6131596
2013-04-18T07:00:00Z,57.695000000,57.655000000,57.980000000,56.025000000,6903658
2013-04-19T07:00:00Z,58.080000000,56.720000000,58.140000000,56.465000000,4956390
2013-04-22T07:00:00Z,56.975000000,58.200000000,58.410000000,56.755100000,4329176
2013-04-23T07:00:00Z,58.450000000,58.500000000,58.690000000,57.635000000,4435628
2013-04-24T07:00:00Z,58.520000000,59.965000000,60.225000000,58.500000000,3838470
2013-04-25T07:00:00Z,60.080000000,60.930000000,61.765000000,59.680000000,4522966
2013-04-26T07:00:00Z,60.850000000,59.560000000,60.955000000,59.500000000,4677518
2013-04-29T07:00:00Z,60.250000000,60.965000000,61.360000000,59.940000000,2326786
2013-04-30T07:00:00Z,60.900000000,60.580000000,61.370000000,60.295000000,3568230
2013-05-01T07:00:00Z,60.195000000,59.415000000,60.195000000,58.880000000,3678568
2013-05-02T07:00:00Z,59.625000000,59.835000000,60.131000000,59.000000000,3080348
2013-05-03T07:00:00Z,60.700000000,61.990000000,62.100000000,60.700000000,4339174
2013-05-06T07:00:00Z,62.300000000,63.020000000,63.365000000,61.630000000,5605950
2013-05-07T07:00:00Z,66.895000000,67.845000000,68.980000000,66.480000000,10449252
2013-05-08T07:00:00Z,68.020000000,68.950000000,69.388000000,67.960000000,6429418
2013-05-09T07:00:00Z,69.405000000,68.040000000,69.500000000,67.765000000,5611232
2013-05-10T07:00:00Z,67.745000000,66.790000000,67.745000000,65.850500000,4900074
2013-05-13T07:00:00Z,66.410000000,66.830000000,67.270000000,66.155000000,3210106
2013-05-14T07:00:00Z,67.000000000,68.335000000,68.485000000,66.910000000,3959374
2013-05-15T07:00:00Z,68.245000000,67.345000000,68.820000000,67.025000000,4217718
2013-05-16T07:00:00Z,67.255000000,66.610000000,67.460000000,66.370000000,3960590
2013-05-17T07:00:00Z,66.900000000,67.625000000,67.945000000,66.755000000,5240938
2013-05-20T07:00:00Z,67.685000000,67.805000000,68.575000000,67.435000000,4074958
2013-05-21T07:00:00Z,67.890000000,67.140000000,68.132500000,67.025000000,2490174
2013-05-22T07:00:00Z,67.080000000,65.465000000,67.765000000,64.910000000,4041904
2013-05-23T07:00:00Z,64.485000000,65.700000000,65.820000000,64.115000000,3629690
2013-05-24T07:00:00Z,64.865000000,65.415000000,65.475000000,64.315000000,2410874
2013-05-28T07:00:00Z,66.230000000,65.560000000,66.625000000,64.755000000,3507026
2013-05-29T07:00:00Z,65.170000000,66.415000000,66.710000000,65.060000000,3149460
2013-05-30T07:00:00Z,66.165000000,66.345000000,66.970000000,65.447500000,2435112
2013-05-31T07:00:00Z,65.865000000,64.550000000,66.297500000,64.545000000,3439188
2013-06-03T07:00:00Z,65.075000000,65.875000000,66.065000000,64.860000000,2904720
2013-06-04T07:00:00Z,65.735000000,66.080000000,66.320000000,65.165000000,3553470
2013-06-05T07:00:00Z,65.830000000,64.260000000,65.985000000,64.245000000,2890848
2013-06-06T07:00:00Z,64.455000000,65.320000000,65.325000000,63.760000000,2993084
2013-06-07T07:00:00Z,65.550000000,66.340000000,66.822800000,65.100000000,2236070
2013-06-10T07:00:00Z,66.165000000,65.810000000,66.300000000,65.575000000,1533500
2013-06-11T07:00:00Z,64.645000000,64.555000000,65.160000000,64.120000000,2794626
2013-06-12T07:00:00Z,65.630000000,64.815000000,65.885000000,64.740000000,2709366
2013-06-13T07:00:00Z,64.840000000,66.665000000,66.750000000,64.675000000,3135032
2013-06-14T07:00:00Z,66.805000000,65.870000000,66.805000000,65.565000000,2687614
2013-06-17T07:00:00Z,66.600000000,66.665000000,67.170000000,66.080000000,2379340
2013-06-18T07:00:00Z,66.750000000,67.510000000,67.980000000,66.570200000,2802308
2013-06-19T07:00:00Z,67.485000000,67.795000000,68.995000000,67.390000000,3409064
2013-06-20T07:00:00Z,66.860000000,65.495000000,66.945000000,64.895500000,4400690
2013-06-21T07:00:00Z,66.120000000,65.200000000,66.197500000,64.285000000,4787910
2013-06-24T07:00:00Z,64.445000000,63.705000000,64.730000000,62.265000000,3962272
2013-06-25T07:00:00Z,64.510000000,65.075000000,65.550000000,64.110000000,3444142
2013-06-26T07:00:00Z,65.595000000,65.925000000,66.275000000,64.765000000,2506058
2013-06-27T07:00:00Z,66.580000000,65.505000000,67.040000000,65.360000000,3611420
2013-06-28T07:00:00Z,65.215000000,65.840000000,66.495000000,65.010000000,3427256
2013-07-01T07:00:00Z,66.895000000,67.655000000,68.215000000,66.620000000,3232594
2013-07-02T07:00:00Z,67.620000000,68.940000000,69.635000000,67.620000000,4341192
2013-07-03T07:00:00Z,69.000000000,69.090000000,69.250000000,68.405000000,1709298
2013-07-05T07:00:00Z,69.530000000,70.200000000,70.320000000,69.315000000,2281490
2013-07-08T07:00:00Z,70.750000000,69.880000000,71.265000000,69.505000000,3430316
2013-07-09T07:00:00Z,70.475000000,71.110000000,71.235000000,70.195000000,3548494
2013-07-10T07:00:00Z,71.345000000,71.135000000,71.840000000,70.815000000,3534520
2013-07-11T07:00:00Z,72.000000000,71.775000000,73.395000000,71.445000000,5601574
2013-07-12T07:00:00Z,71.550000000,72.355000000,72.385000000,70.955000000,3778034
2013-07-15T07:00:00Z,72.315000000,71.770000000,72.807600000,71.292400000,3462344
2013-07-16T07:00:00Z,71.890000000,72.280000000,72.767500000,71.875000000,3735922
2013-07-17T07:00:00Z,72.525000000,72.915000000,73.210000000,72.325000000,2746630
2013-07-18T07:00:00Z,73.210000000,73.500000000,74.135000000,73.110000000,3070432
2013-07-19T07:00:00Z,73.905000000,74.335000000,74.350000000,73.255000000,2742446
2013-07-22T07:00:00Z,74.315000000,74.745000000,75.025000000,73.770000000,3241178
2013-07-23T07:00:00Z,74.810000000,74.320000000,74.990000000,74.006300000,3267206
2013-07-24T07:00:00Z,74.545000000,72.035000000,74.570000000,71.580000000,6076634
2013-07-25T07:00:00Z,72.035000000,73.685000000,73.700000000,72.000000000,3930800
2013-07-26T07:00:00Z,73.120000000,72.870000000,73.360000000,72.120000000,2974548
2013-07-29T07:00:00Z,72.660000000,72.355000000,72.759900000,71.935000000,1627300
2013-07-30T07:00:00Z,72.525000000,72.050000000,72.890000000,70.775000000,3268952
2013-07-31T07:00:00Z,72.310000000,72.745000000,74.085000000,72.310000000,3469416
2013-08-01T07:00:00Z,73.785000000,76.035000000,76.455000000,73.785000000,3997024
2013-08-02T07:00:00Z,75.380000000,76.515000000,76.605000000,75.125000000,2817310
2013-08-05T07:00:00Z,76.470000000,77.090000000,77.520000000,76.075000000,3573944
2013-08-06T07:00:00Z,77.050000000,76.610000000,77.455000000,75.652500000,4960858
2013-08-07T07:00:00Z,80.155000000,78.110000000,80.735000000,77.645000000,9414056
2013-08-08T07:00:00Z,78.930000000,79.290000000,80.125000000,78.155000000,4722976
2013-08-09T07:00:00Z,79.330000000,79.420000000,79.985000000,79.000000000,3664428
2013-08-12T07:00:00Z,79.080000000,79.380000000,80.225000000,78.730000000,4004378
2013-08-13T07:00:00Z,79.500000000,79.120000000,79.577000000,78.380000000,2282664
2013-08-14T07:00:00Z,79.060000000,78.200000000,79.450000000,78.061600000,2548278
2013-08-15T07:00:00Z,77.770000000,78.295000000,78.890000000,77.145000000,2551442
2013-08-16T07:00:00Z,77.765000000,77.745000000,78.445000000,77.155000000,2501962
2013-08-19T07:00:00Z,77.760000000,76.345000000,78.060000000,76.270000000,2752962
2013-08-20T07:00:00Z,76.350000000,77.310000000,77.945000000,76.080500000,2398292
2013-08-21T07:00:00Z,77.185000000,75.920000000,77.185000000,75.695000000,2361658
2013-08-22T07:00:00Z,76.365000000,77.200000000,77.680000000,76.225000000,1462944
2013-08-23T07:00:00Z,77.200000000,78.310000000,78.395000000,76.770000000,2086048
2013-08-26T07:00:00Z,78.630000000,78.555000000,79.805000000,78.415000000,2217960
2013-08-27T07:00:00Z,78.080000000,78.145000000,79.281500000,78.000000000,2277086
2013-08-28T07:00:00Z,78.470000000,79.730000000,80.658500000,78.415000000,3517860
2013-08-29T07:00:00Z,79.365000000,78.545000000,79.650000000,78.340000000,1998340
2013-08-30T07:00:00Z,78.750000000,78.525000000,79.160000000,78.145000000,2166526
2013-09-03T07:00:00Z,79.730000000,79.215000000,80.245800000,78.525000000,2207682
2013-09-04T07:00:00Z,78.745000000,80.265000000,80.505000000,78.745000000,2612320
2013-09-05T07:00:00Z,80.610000000,80.715000000,81.310000000,80.475000000,1967622
2013-09-06T07:00:00Z,81.285000000,80.860000000,82.165000000,80.290000000,3772684
2013-09-09T07:00:00Z,81.550000000,81.825000000,82.000000000,81.085000000,3750896
2013-09-10T07:00:00Z,81.750000000,81.750000000,82.360000000,80.465000000,3420506
2013-09-11T07:00:00Z,81.725000000,83.575000000,83.685000000,81.420000000,3615374
2013-09-12T07:00:00Z,83.770000000,83.995000000,84.385000000,83.500000000,3130272
2013-09-13T07:00:00Z,83.875000000,83.220000000,84.070000000,83.050000000,2089402
2013-09-16T07:00:00Z,83.770000000,82.900000000,83.995000000,82.540000000,2470984
2013-09-17T07:00:00Z,83.255000000,83.885000000,84.180000000,82.894300000,2069828
2013-09-18T07:00:00Z,83.630000000,85.895000000,86.180000000,83.600000000,2871078
2013-09-19T07:00:00Z,86.050000000,85.365000000,86.405000000,84.675000000,2123292
2013-09-20T07:00:00Z,85.250000000,84.435000000,85.765000000,84.265000000,3690112
2013-09-23T07:00:00Z,84.285000000,84.430000000,84.855000000,84.055000000,2652348
2013-09-24T07:00:00Z,84.705000000,86.045000000,86.960000000,84.310000000,4233454
2013-09-25T07:00:00Z,86.045000000,85.690000000,86.644500000,85.365000000,3507350
2013-09-26T07:00:00Z,85.860000000,86.045000000,86.085000000,84.910000000,1933520
2013-09-27T07:00:00Z,85.615000000,85.365000000,85.832000000,84.900000000,1663740
2013-09-30T07:00:00Z,83.780000000,84.640000000,85.170000000,83.560000000,2593748
2013-10-01T07:00:00Z,84.305000000,86.075000000,86.415000000,84.275000000,2809372
2013-10-02T07:00:00Z,85.935000000,86.180000000,86.180000000,84.590000000,2717644
2013-10-03T07:00:00Z,85.975000000,85.900000000,86.115000000,84.995000000,2515624
2013-10-04T07:00:00Z,85.960000000,87.295000000,87.430800000,85.270000000,3206438
2013-10-07T07:00:00Z,86.105000000,86.415000000,87.105000000,85.625500000,3423748
2013-10-08T07:00:00Z,86.170000000,85.730000000,87.325000000,85.205000000,3545166
2013-10-09T07:00:00Z,86.165000000,85.760000000,86.780000000,84.800000000,3839628
2013-10-10T07:00:00Z,86.695000000,87.430000000,87.470000000,86.470000000,3033276
2013-10-11T07:00:00Z,87.160000000,89.495000000,90.475000000,87.125000000,3900160
2013-10-14T07:00:00Z,88.680000000,90.530000000,90.540000000,88.165000000,2461212
2013-10-15T07:00:00Z,90.125000000,89.985000000,90.990000000,89.500000000,3037934
2013-10-16T07:00:00Z,91.240000000,91.145000000,92.935000000,90.735000000,4586990
2013-10-17T07:00:00Z,90.840000000,90.695000000,91.200000000,89.650000000,4643640
2013-10-18T07:00:00Z,91.330000000,91.895000000,92.085000000,90.420000000,4309848
2013-10-21T07:00:00Z,91.500000000,92.160000000,92.750000000,91.325000000,2405134
2013-10-22T07:00:00Z,93.395000000,92.575000000,94.149900000,91.790000000,3929960
2013-10-23T07:00:00Z,91.560000000,89.220000000,91.560000000,88.255000000,5441464
2013-10-24T07:00:00Z,89.030000000,90.715000000,91.282500000,88.055000000,4081906
2013-10-25T07:00:00Z,91.175000000,91.720000000,92.045000000,90.645000000,2584530
2013-10-28T07:00:00Z,91.915000000,91.210000000,91.950000000,90.937500000,1838642
2013-10-29T07:00:00Z,91.435000000,92.540000000,92.885000000,91.155000000,2861722
2013-10-30T07:00:00Z,93.160000000,90.165000000,93.425000000,89.445000000,3915716
2013-10-31T07:00:00Z,89.990000000,89.200000000,90.455000000,88.355000000,3954310
2013-11-01T07:00:00Z,89.305000000,89.490000000,90.015000000,87.701000000,3633164
2013-11-04T07:00:00Z,90.235000000,91.730000000,91.800000000,89.864800000,2739262
2013-11-05T07:00:00Z,91.670000000,89.865000000,91.670000000,89.760000000,3686698
2013-11-06T07:00:00Z,90.665000000,88.320000000,91.450000000,87.970000000,4666828
2013-11-07T07:00:00Z,89.655000000,85.790000000,90.120000000,82.525500000,9041352
2013-11-08T07:00:00Z,85.560000000,85.480000000,86.630000000,85.280000000,5577716
2013-11-11T07:00:00Z,85.605000000,85.725000000,85.820000000,84.815500000,3293196
2013-11-12T07:00:00Z,85.350000000,83.550000000,85.540000000,82.900000000,4579656
2013-11-13T07:00:00Z,83.220000000,84.730000000,84.928800000,82.892500000,4713280
2013-11-14T07:00:00Z,84.745000000,84.835000000,85.040000000,83.975000000,3690688
2013-11-15T07:00:00Z,85.140000000,85.690000000,86.069500000,83.940000000,4322424
2013-11-18T07:00:00Z,85.750000000,84.260000000,86.100000000,83.735000000,3031958
2013-11-19T07:00:00Z,84.060000000,83.945000000,84.735000000,82.825500000,3115310
2013-11-20T07:00:00Z,84.422500000,83.460000000,84.880000000,83.105500000,3010688
2013-11-21T07:00:00Z,84.060000000,84.655000000,84.980000000,83.900000000,3079280
2013-11-22T07:00:00Z,85.100000000,85.075000000,85.205000000,83.675000000,2536554
2013-11-25T07:00:00Z,84.660000000,84.595000000,84.685000000,82.835000000,3777856
2013-11-26T07:00:00Z,84.675000000,84.600000000,85.739500000,83.850000000,3180770
2013-11-27T07:00:00Z,84.465000000,83.215000000,84.845000000,82.760000000,3360690
2013-11-29T07:00:00Z,83.250000000,82.500000000,83.555000000,82.092500000,2248410
2013-12-02T07:00:00Z,83.000000000,82.500000000,83.275000000,81.565000000,3034970
2013-12-03T07:00:00Z,82.225000000,82.740000000,83.364800000,80.910000000,4165388
2013-12-04T07:00:00Z,82.800000000,83.565000000,84.555000000,82.750000000,3751452
2013-12-05T07:00:00Z,82.670000000,82.690000000,83.870000000,82.080000000,4476066
2013-12-06T07:00:00Z,83.475000000,80.020000000,83.550000000,79.945000000,7345236
2013-12-09T07:00:00Z,80.460000000,79.070000000,80.625000000,78.155000000,8547618
2013-12-10T07:00:00Z,79.215000000,79.655000000,80.970000000,79.070000000,4554700
2013-12-11T07:00:00Z,79.425000000,78.130000000,79.567500000,78.005000000,4239902
2013-12-12T07:00:00Z,78.215000000,79.180000000,79.660000000,78.120000000,3813236
2013-12-13T07:00:00Z,78.835000000,79.510000000,79.675000000,78.245000000,4488630
2013-12-16T07:00:00Z,79.670000000,79.870000000,80.985000000,79.670000000,4120576
2013-12-17T07:00:00Z,80.260000000,79.825000000,80.260000000,78.755000000,3474186
2013-12-18T07:00:00Z,79.820000000,81.000000000,81.190000000,79.165000000,5966640
2013-12-19T07:00:00Z,80.835000000,82.665000000,82.955000000,80.590000000,5075004
2013-12-20T07:00:00Z,83.060000000,84.260000000,84.660000000,82.725000000,6269038
2013-12-23T07:00:00Z,84.630000000,83.810000000,84.920000000,83.415000000,3028054
2013-12-24T07:00:00Z,83.910000000,84.130000000,84.135000000,83.115000000,978182
2013-12-26T07:00:00Z,84.230000000,84.010000000,84.769900000,83.835000000,1772308
2013-12-27T07:00:00Z,84.070000000,84.580000000,84.738000000,83.840000000,1686012
2013-12-30T07:00:00Z,84.475000000,83.675000000,85.250000000,83.097500000,2811434
2013-12-31T07:00:00Z,83.670000000,83.920000000,84.425000000,83.235000000,2109852
2013-12-31T07:00:00Z,83.670000000,83.920000000,84.425000000,83.235000000,2109852
2014-01-02T07:00:00Z,83.285000000,82.510000000,83.978100000,82.030000000,2944140
2014-01-03T07:00:00Z,82.875000000,82.280000000,83.325000000,81.905200000,2693750
2014-01-06T07:00:00Z,82.385000000,82.010000000,82.665000000,81.167500000,3649192
2014-01-07T07:00:00Z,82.535000000,83.425000000,83.455000000,81.852500000,3287000
2014-01-08T07:00:00Z,83.010000000,83.390000000,83.914900000,82.525000000,2857880
2014-01-09T07:00:00Z,83.705000000,83.500000000,84.445000000,82.740000000,3539336
2014-01-10T07:00:00Z,83.730000000,83.405000000,84.050000000,82.995000000,2949798
2014-01-13T07:00:00Z,83.705000000,81.730000000,84.135000000,81.485000000,2672664
2014-01-14T07:00:00Z,82.030000000,84.300000000,84.365000000,81.815000000,3221976
2014-01-15T07:00:00Z,84.730000000,85.180000000,86.640000000,84.700000000,4088860
2014-01-16T07:00:00Z,85.050000000,85.050000000,85.585000000,84.350000000,3342482
2014-01-17T07:00:00Z,85.480000000,84.480000000,85.940000000,84.460000000,3325724
2014-01-21T07:00:00Z,84.580000000,84.615000000,85.275000000,84.070000000,3195084
2014-01-22T07:00:00Z,85.097500000,85.860000000,86.150000000,84.625000000,3588544
2014-01-23T07:00:00Z,84.890000000,84.585000000,85.869900000,84.115000000,4482806
2014-01-24T07:00:00Z,84.025000000,82.765000000,84.520000000,82.560100000,5653078
2014-01-27T07:00:00Z,82.585000000,81.050000000,82.745000000,80.630000000,3809822
2014-01-28T07:00:00Z,81.690000000,83.610000000,83.750000000,81.145000000,3292674
2014-01-29T07:00:00Z,82.960000000,82.325000000,83.080000000,81.770200000,3280418
2014-01-30T07:00:00Z,82.550000000,83.065000000,83.750000000,82.325000000,2262924
2014-01-31T07:00:00Z,82.335000000,82.620000000,83.800000000,81.590000000,2639566
2014-02-03T07:00:00Z,82.305000000,80.870000000,83.430000000,80.750000000,4528920
2014-02-04T07:00:00Z,81.335000000,84.290000000,84.495000000,81.250000000,6577434
2014-02-05T07:00:00Z,84.050000000,83.745000000,84.850000000,83.385000000,4293062
2014-02-06T07:00:00Z,83.845000000,86.625000000,86.895000000,83.845000000,5142174
2014-02-07T07:00:00Z,87.385000000,88.250000000,88.440000000,86.571000000,4184512
2014-02-10T07:00:00Z,88.380000000,87.100000000,88.380000000,86.535000000,3538252
2014-02-11T07:00:00Z,87.150000000,87.365000000,88.105000000,86.780000000,3299190
2014-02-12T07:00:00Z,87.875000000,87.555000000,88.450000000,87.245000000,2588172
2014-02-13T07:00:00Z,86.790000000,87.735000000,88.376500000,86.300000000,3432632
2014-02-14T07:00:00Z,87.855000000,88.480000000,88.625000000,87.445000000,2340546
2014-02-18T07:00:00Z,89.060000000,89.960000000,90.130000000,89.005000000,3654694
2014-02-19T07:00:00Z,89.525000000,89.430000000,90.805000000,89.200000000,3834990
2014-02-20T07:00:00Z,89.520000000,90.015000000,91.030000000,89.075000000,4511960
2014-02-21T07:00:00Z,90.235000000,89.000000000,90.485000000,88.970000000,5411032
2014-02-24T07:00:00Z,89.215000000,90.200000000,90.810000000,88.515000000,7074362
2014-02-25T07:00:00Z,91.425000000,92.000000000,92.565000000,89.625000000,7465912
2014-02-26T07:00:00Z,91.805000000,93.220000000,94.204500000,91.440000000,7214394
2014-02-27T07:00:00Z,93.205000000,93.735000000,93.822500000,92.245000000,3779670
2014-02-28T07:00:00Z,93.860000000,94.710000000,95.540000000,93.555000000,5077904
2014-03-03T07:00:00Z,94.525000000,94.645000000,96.000000000,94.310000000,5608452
2014-03-04T07:00:00Z,95.235000000,95.780000000,96.460000000,95.165000000,4266520
2014-03-05T07:00:00Z,96.020000000,95.245000000,96.610000000,95.025000000,3900792
2014-03-06T07:00:00Z,95.360000000,95.530000000,96.105000000,94.664300000,3450578
2014-03-07T07:00:00Z,95.760000000,94.960000000,95.975000000,94.100500000,3917102
2014-03-10T07:00:00Z,94.960000000,94.525000000,94.960000000,93.560000000,2759232
2014-03-11T07:00:00Z,94.920000000,92.800000000,95.085000000,92.660000000,4103660
2014-03-12T07:00:00Z,91.800000000,92.565000000,93.215000000,90.830000000,4087848
2014-03-13T07:00:00Z,93.125000000,91.455000000,93.325000000,90.885000000,3764290
2014-03-14T07:00:00Z,91.485000000,92.985000000,93.105000000,91.450000000,3178352
2014-03-17T07:00:00Z,93.300000000,93.615000000,94.000000000,93.000000000,2722320
2014-03-18T07:00:00Z,93.700000000,94.580000000,95.260000000,93.590000000,3165938
2014-03-19T07:00:00Z,94.675000000,93.765000000,94.720000000,93.015000000,3165092
2014-03-20T07:00:00Z,93.810000000,95.165000000,95.280000000,93.035000000,4022466
2014-03-21T07:00:00Z,95.955000000,95.820000000,96.580000000,94.690000000,5331708
2014-03-24T07:00:00Z,96.125000000,94.800000000,96.485000000,94.230000000,3461646
2014-03-25T07:00:00Z,95.590000000,95.785000000,96.485000000,95.450000000,3819058
2014-03-26T07:00:00Z,96.275000000,96.060000000,97.658000000,95.950000000,4117322
2014-03-27T07:00:00Z,96.145000000,96.730000000,97.700000000,96.010000000,3535222
2014-03-28T07:00:00Z,97.235000000,98.580000000,99.410000000,97.055000000,4051242
2014-03-31T07:00:00Z,99.235000000,98.085000000,99.750000000,97.525000000,4142808
2014-04-01T07:00:00Z,99.380000000,98.980000000,100.360000000,98.260000000,3422983
2014-04-02T07:00:00Z,98.270000000,99.110000000,99.450000000,98.020000000,2858190
2014-04-03T07:00:00Z,99.330000000,100.650000000,101.500000000,99.260000000,5219482
2014-04-04T07:00:00Z,102.670000000,99.770000000,103.295000000,98.950000000,4030144
2014-04-07T07:00:00Z,99.720000000,97.930000000,99.980000000,97.450000000,3146581
2014-04-08T07:00:00Z,97.780000000,98.710000000,99.580000000,97.540000000,3293647
2014-04-09T07:00:00Z,98.940000000,98.950000000,99.170000000,97.990000000,3826712
2014-04-10T07:00:00Z,98.630000000,98.110000000,99.990000000,97.560000000,4706319
2014-04-11T07:00:00Z,97.670000000,98.630000000,99.440000000,97.570000000,4581572
2014-04-14T07:00:00Z,99.520000000,99.960000000,100.100000000,98.720000000,3427874
2014-04-15T07:00:00Z,99.630000000,101.110000000,101.680000000,99.520000000,4695789
2014-04-16T07:00:00Z,101.480000000,101.010000000,102.201500000,100.430000000,3650994
2014-04-17T07:00:00Z,100.840000000,102.450000000,102.840000000,100.840000000,3253213
2014-04-21T07:00:00Z,102.980000000,103.530000000,103.580000000,101.840100000,2404788
2014-04-22T07:00:00Z,103.270000000,102.340000000,103.270000000,102.110000000,3332773
2014-04-23T07:00:00Z,102.530000000,105.080000000,105.180000000,102.530000000,3445732
2014-04-24T07:00:00Z,105.500000000,103.480000000,105.500000000,103.420000000,3715985
2014-04-25T07:00:00Z,103.250000000,99.040000000,103.300000000,98.520000000,7169791
2014-04-28T07:00:00Z,99.940000000,98.060000000,100.000000000,96.530000000,5112184
2014-04-29T07:00:00Z,98.880000000,99.620000000,101.230000000,98.830000000,4089133
2014-04-30T07:00:00Z,99.070000000,98.000000000,99.200000000,97.010000000,6297708
2014-05-01T07:00:00Z,98.330000000,97.120000000,98.770000000,96.810000000,4240561
2014-05-02T07:00:00Z,97.300000000,97.060000000,98.250000000,96.820000000,3712934
2014-05-05T07:00:00Z,96.040000000,99.250000000,99.711000000,96.010000000,4766434
2014-05-06T07:00:00Z,102.800000000,103.630000000,106.500000000,101.840000000,8515778
2014-05-07T07:00:00Z,104.610000000,104.790000000,105.450000000,102.640000000,5705837
2014-05-08T07:00:00Z,104.030000000,101.730000000,104.560000000,101.620000000,3265809
2014-05-09T07:00:00Z,102.000000000,102.280000000,102.300000000,100.640000000,3709705
2014-05-12T07:00:00Z,102.570000000,103.640000000,103.730000000,101.980000000,3351934
2014-05-13T07:00:00Z,104.580000000,105.170000000,105.500000000,104.070000000,3426618
2014-05-14T07:00:00Z,105.390000000,103.900000000,105.490000000,103.860000000,2415023
2014-05-15T07:00:00Z,103.970000000,102.740000000,103.980000000,101.551000000,2608089
2014-05-16T07:00:00Z,102.570000000,102.500000000,102.880000000,101.340000000,2846309
2014-05-19T07:00:00Z,102.500000000,102.300000000,103.360000000,101.960000000,1832776
2014-05-20T07:00:00Z,102.220000000,101.890000000,102.950000000,101.470000000,1937664
2014-05-21T07:00:00Z,102.700000000,104.160000000,104.360000000,102.130000000,1777722
2014-05-22T07:00:00Z,104.290000000,103.680000000,105.170000000,103.534800000,2458417
2014-05-23T07:00:00Z,103.890000000,103.970000000,105.150000000,103.440000000,2535088
2014-05-27T07:00:00Z,104.440000000,104.730000000,104.970000000,103.750000000,2072530
2014-05-28T07:00:00Z,104.860000000,105.190000000,105.630000000,104.400000000,2725834
2014-05-29T07:00:00Z,105.420000000,106.670000000,106.710000000,105.000000000,2565461
2014-05-30T07:00:00Z,106.270000000,105.800000000,106.360000000,105.250000000,2291034
2014-06-02T07:00:00Z,105.950000000,105.380000000,106.000000000,104.950000000,1712411
2014-06-03T07:00:00Z,105.450000000,106.660000000,106.660000000,105.270000000,1975029
2014-06-04T07:00:00Z,106.480000000,106.370000000,106.730000000,105.560000000,1695842
2014-06-05T07:00:00Z,106.350000000,107.900000000,107.910000000,105.820000000,2212057
2014-06-06T07:00:00Z,108.140000000,109.320000000,109.560000000,108.040000000,2151401
2014-06-09T07:00:00Z,110.090000000,109.510000000,110.750000000,109.000000000,2366345
2014-06-10T07:00:00Z,109.390000000,108.690000000,109.749900000,108.410000000,2174742
2014-06-11T07:00:00Z,108.250000000,110.700000000,110.910000000,108.140000000,2684063
2014-06-12T07:00:00Z,111.460000000,111.630000000,113.020000000,111.220000000,3800762
2014-06-13T07:00:00Z,111.770000000,114.020000000,114.060000000,110.530000000,3130101
2014-06-16T07:00:00Z,115.210000000,114.030000000,115.210000000,113.020000000,4075258
2014-06-17T07:00:00Z,113.950000000,112.390000000,113.950000000,111.260000000,5247698
2014-06-18T07:00:00Z,112.580000000,113.540000000,113.840000000,111.740000000,2912510
2014-06-19T07:00:00Z,113.140000000,115.800000000,115.850000000,112.520000000,3866483
2014-06-20T07:00:00Z,117.050000000,117.980000000,118.390000000,116.150000000,5556996
2014-06-23T07:00:00Z,118.520000000,117.410000000,118.890000000,116.950000000,3329234
2014-06-24T07:00:00Z,117.180000000,113.020000000,117.450000000,112.240000000,4577977
2014-06-25T07:00:00Z,113.320000000,116.020000000,116.250000000,113.320000000,3456736
2014-06-26T07:00:00Z,115.680000000,115.420000000,115.820000000,114.070000000,2355128
2014-06-27T07:00:00Z,115.230000000,115.840000000,115.930000000,114.710000000,2801758
2014-06-30T07:00:00Z,116.080000000,116.860000000,117.190000000,115.850000000,2344837
2014-07-01T07:00:00Z,117.440000000,116.550000000,117.940000000,116.020000000,2793819
2014-07-02T07:00:00Z,116.860000000,116.230000000,117.590000000,115.540000000,2649906
2014-07-03T07:00:00Z,116.270000000,116.750000000,117.020000000,115.110000000,1677892
2014-07-07T07:00:00Z,116.400000000,115.730000000,116.500000000,115.420000000,1574664
2014-07-08T07:00:00Z,115.370000000,115.980000000,116.550000000,115.130000000,2511389
2014-07-09T07:00:00Z,116.100000000,116.560000000,116.630000000,115.190000000,1938840
2014-07-10T07:00:00Z,114.880000000,114.960000000,115.880000000,113.760000000,2212687
2014-07-11T07:00:00Z,115.740000000,113.650000000,115.740000000,113.390000000,2482078
2014-07-14T07:00:00Z,114.650000000,115.690000000,116.050000000,114.310000000,2956255
2014-07-15T07:00:00Z,114.910000000,113.440000000,115.620000000,112.638900000,3367679
2014-07-16T07:00:00Z,114.620000000,117.100000000,117.280000000,114.170000000,3182834
2014-07-17T07:00:00Z,117.480000000,115.550000000,118.810000000,115.350000000,2288182
2014-07-18T07:00:00Z,115.360000000,116.040000000,116.387000000,114.342000000,2605225
2014-07-21T07:00:00Z,115.860000000,116.150000000,116.425000000,115.120000000,1594977
2014-07-22T07:00:00Z,116.750000000,116.550000000,117.620000000,115.800000000,2600588
2014-07-23T07:00:00Z,116.700000000,115.950000000,116.700000000,115.300000000,3621590
2014-07-24T07:00:00Z,116.480000000,116.200000000,116.930000000,115.700000000,2864399
2014-07-25T07:00:00Z,115.580000000,114.820000000,115.860000000,114.400300000,1981201
2014-07-28T07:00:00Z,114.820000000,113.390000000,115.020000000,113.000000000,2993483
2014-07-29T07:00:00Z,113.270000000,114.240000000,115.330000000,113.190000000,2502920
2014-07-30T07:00:00Z,114.830000000,113.630000000,115.440000000,113.360000000,1779381
2014-07-31T07:00:00Z,112.840000000,109.440000000,113.090000000,109.370000000,4162781
2014-08-01T07:00:00Z,108.650000000,108.040000000,109.810000000,107.160000000,3966436
2014-08-04T07:00:00Z,108.740000000,111.810000000,112.120000000,108.080000000,3007100
2014-08-05T07:00:00Z,111.810000000,108.630000000,111.810000000,107.510000000,4850181
2014-08-06T07:00:00Z,107.030000000,106.640000000,108.508600000,105.630100000,5007977
2014-08-07T07:00:00Z,107.630000000,106.060000000,107.630000000,105.400000000,2977507
2014-08-08T07:00:00Z,106.070000000,107.780000000,107.900000000,106.070000000,2354184
2014-08-11T07:00:00Z,108.720000000,108.300000000,109.000000000,107.920000000,2760744
2014-08-12T07:00:00Z,107.890000000,106.690000000,108.490000000,106.340000000,3265911
2014-08-13T07:00:00Z,107.660000000,106.350000000,107.880000000,106.220000000,2337379
2014-08-14T07:00:00Z,107.220000000,103.930000000,107.230000000,103.570000000,3490654
2014-08-15T07:00:00Z,103.970000000,106.090000000,106.420000000,103.670000000,4557934
2014-08-18T07:00:00Z,106.650000000,105.430000000,106.910000000,104.660000000,3276046
2014-08-19T07:00:00Z,106.100000000,107.030000000,107.350000000,105.660000000,3147466
2014-08-20T07:00:00Z,107.090000000,107.280000000,107.450000000,106.100000000,2185882
2014-08-21T07:00:00Z,107.500000000,107.190000000,107.519900000,106.020100000,2138759
2014-08-22T07:00:00Z,106.590000000,106.270000000,106.840000000,105.610000000,2075667
2014-08-25T07:00:00Z,106.930000000,107.940000000,108.250000000,106.600000000,1938369
2014-08-26T07:00:00Z,108.860000000,109.400000000,110.470000000,108.500000000,3285701
2014-08-27T07:00:00Z,109.430000000,108.610000000,109.450000000,108.070000000,1996698
2014-08-28T07:00:00Z,108.320000000,108.390000000,109.080000000,108.100000000,1757040
2014-08-29T07:00:00Z,108.800000000,109.880000000,109.980000000,108.370000000,1802696
2014-09-02T07:00:00Z,109.570000000,107.710000000,109.850000000,107.080000000,2755508
2014-09-03T07:00:00Z,108.850000000,107.740000000,109.080000000,107.460000000,1479234
2014-09-04T07:00:00Z,107.760000000,104.610000000,107.990000000,103.970000000,3937570
2014-09-05T07:00:00Z,104.350000000,105.180000000,105.290000000,103.050000000,3236407
2014-09-08T07:00:00Z,104.070000000,101.410000000,104.070000000,100.750000000,5549802
2014-09-09T07:00:00Z,101.630000000,101.310000000,102.490000000,100.820000000,3636027
2014-09-10T07:00:00Z,100.930000000,102.010000000,102.140000000,99.330000000,3717147
2014-09-11T07:00:00Z,100.930000000,103.060000000,103.130000000,100.500000000,4596770
2014-09-12T07:00:00Z,102.500000000,101.320000000,102.570000000,101.030000000,3699845
2014-09-15T07:00:00Z,100.800000000,101.910000000,102.410000000,100.120000000,3056044
2014-09-16T07:00:00Z,102.330000000,105.220000000,105.900000000,101.750000000,4117680
2014-09-17T07:00:00Z,105.650000000,105.190000000,106.090000000,104.520000000,3689602
2014-09-18T07:00:00Z,105.820000000,104.980000000,105.990000000,104.210000000,3003894
2014-09-19T07:00:00Z,105.240000000,104.370000000,105.900000000,103.960000000,6346213
2014-09-22T07:00:00Z,103.820000000,101.740000000,103.860000000,100.570000000,4437043
2014-09-23T07:00:00Z,101.550000000,100.840000000,101.630000000,100.450000000,5577332
2014-09-24T07:00:00Z,100.940000000,102.140000000,102.870000000,99.550000000,4585582
2014-09-25T07:00:00Z,102.640000000,100.360000000,102.700000000,100.140000000,3591610
2014-09-26T07:00:00Z,100.370000000,101.880000000,102.410000000,100.210000000,3327471
2014-09-29T07:00:00Z,100.800000000,101.870000000,102.060000000,100.100500000,4301482
2014-09-30T07:00:00Z,101.850000000,99.020000000,101.850000000,97.450000000,6424066
2014-10-01T07:00:00Z,99.210000000,96.850000000,99.730000000,96.150100000,5857099
2014-10-02T07:00:00Z,95.760000000,97.060000000,97.640000000,94.270000000,5382663
2014-10-03T07:00:00Z,97.720000000,96.570000000,97.720000000,95.570000000,4433900
2014-10-06T07:00:00Z,96.840000000,95.090000000,97.000000000,94.360000000,5115314
2014-10-07T07:00:00Z,95.020000000,93.610000000,96.020000000,93.570000000,5518926
2014-10-08T07:00:00Z,93.310000000,94.560000000,94.690000000,90.800000000,7724576
2014-10-09T07:00:00Z,93.640000000,91.960000000,93.730000000,90.880000000,9684979
2014-10-10T07:00:00Z,91.070000000,89.830000000,91.950000000,88.610000000,9915862
2014-10-13T07:00:00Z,89.250000000,83.760000000,90.300000000,83.580000000,9448894
2014-10-14T07:00:00Z,85.400000000,83.840000000,86.880000000,83.500000000,12229591
2014-10-15T07:00:00Z,82.030000000,88.170000000,88.530000000,81.070000000,11110299
2014-10-16T07:00:00Z,85.190000000,91.270000000,92.520000000,85.190000000,10111528
2014-10-17T07:00:00Z,94.200000000,91.220000000,95.550000000,90.260000000,8665807
2014-10-20T07:00:00Z,91.630000000,92.760000000,93.130000000,90.770000000,4420632
2014-10-21T07:00:00Z,94.350000000,96.030000000,96.150000000,94.270000000,6299027
2014-10-22T07:00:00Z,96.760000000,92.070000000,97.000000000,91.980000000,7673474
2014-10-23T07:00:00Z,94.240000000,93.400000000,94.840000000,92.400000000,9219270
2014-10-24T07:00:00Z,92.950000000,92.100000000,93.020000000,90.200000000,5418293
2014-10-27T07:00:00Z,90.280000000,88.430000000,90.280000000,86.950000000,7435920
2014-10-28T07:00:00Z,88.810000000,91.500000000,91.910000000,87.550000000,6123604
2014-10-29T07:00:00Z,94.240000000,93.130000000,95.320000000,91.760000000,5926201
2014-10-30T07:00:00Z,92.570000000,92.220000000,93.290000000,91.030000000,3746187
2014-10-31T07:00:00Z,91.950000000,95.050000000,95.100000000,90.740000000,5495238
2014-11-03T07:00:00Z,95.050000000,93.320000000,96.810000000,92.890000000,7006687
2014-11-04T07:00:00Z,89.670000000,90.280000000,90.993500000,89.000000000,8207985
2014-11-05T07:00:00Z,95.500000000,96.100000000,97.470000000,93.560000000,11401915
2014-11-06T07:00:00Z,95.190000000,98.970000000,99.180000000,95.110000000,8202186
2014-11-07T07:00:00Z,99.720000000,99.550000000,101.580000000,99.270000000,7009155
2014-11-10T07:00:00Z,101.010000000,98.500000000,102.250000000,97.990000000,5947797
2014-11-11T07:00:00Z,98.500000000,98.750000000,99.070000000,97.110000000,4276835
2014-11-12T07:00:00Z,98.680000000,97.560000000,99.350000000,97.350000000,3433698
2014-11-13T07:00:00Z,96.500000000,95.850000000,97.435000000,94.470000000,5859272
2014-11-14T07:00:00Z,96.320000000,98.160000000,98.360000000,96.200000000,3992708
2014-11-17T07:00:00Z,97.010000000,96.350000000,97.380000000,95.730000000,4349405
2014-11-18T07:00:00Z,96.320000000,97.670000000,98.260000000,96.090000000,3917678
2014-11-19T07:00:00Z,98.750000000,98.330000000,98.800000000,96.780000000,3830803
2014-11-20T07:00:00Z,98.450000000,99.440000000,100.290000000,98.340000000,4624090
2014-11-21T07:00:00Z,102.490000000,101.740000000,103.040000000,101.290000000,6378712
2014-11-24T07:00:00Z,101.180000000,99.560000000,101.740000000,99.250000000,4110890
2014-11-25T07:00:00Z,100.280000000,96.740000000,100.320000000,96.720000000,5591953
2014-11-26T07:00:00Z,96.620000000,94.070000000,96.630000000,93.860000000,5346334
2014-11-28T07:00:00Z,87.160000000,86.720000000,88.430000000,85.190000000,9472136
2014-12-01T07:00:00Z,85.520000000,87.240000000,87.580000000,83.660000000,10063494
2014-12-02T07:00:00Z,87.380000000,90.300000000,91.330000000,86.870000000,10159637
2014-12-03T07:00:00Z,91.710000000,91.800000000,93.600000000,90.800000000,6243943
2014-12-04T07:00:00Z,90.790000000,93.000000000,93.000000000,89.750000000,5112581
2014-12-05T07:00:00Z,91.910000000,90.750000000,92.050000000,89.780000000,7572506
2014-12-08T07:00:00Z,89.080000000,88.190000000,89.500000000,87.510000000,8672236
2014-12-09T07:00:00Z,87.000000000,89.150000000,91.119000000,86.770000000,8197573
2014-12-10T07:00:00Z,86.380000000,86.790000000,87.260000000,85.540000000,8821704
2014-12-11T07:00:00Z,87.190000000,86.860000000,89.760000000,86.130000000,5808149
2014-12-12T07:00:00Z,85.310000000,86.370000000,88.420000000,85.100000000,6611854
2014-12-15T07:00:00Z,87.090000000,85.340000000,88.163600000,84.945000000,6866988
2014-12-16T07:00:00Z,83.860000000,85.470000000,89.390000000,83.780000000,8312974
2014-12-17T07:00:00Z,87.610000000,91.140000000,92.210000000,86.110000000,10269454
2014-12-18T07:00:00Z,93.830000000,92.450000000,94.390000000,88.900000000,8888550
2014-12-19T07:00:00Z,93.630000000,95.020000000,95.090000000,92.450000000,7853411
2014-12-22T07:00:00Z,94.210000000,95.060000000,95.620000000,93.680000000,6746568
2014-12-23T07:00:00Z,95.740000000,96.410000000,97.273500000,94.540000000,4251671
2014-12-24T07:00:00Z,95.610000000,94.050000000,95.640000000,92.510000000,3015309
2014-12-26T07:00:00Z,94.900000000,93.820000000,95.200000000,93.330000000,2210553
2014-12-29T07:00:00Z,94.550000000,94.330000000,95.210000000,93.450000000,3396978
2014-12-30T07:00:00Z,93.500000000,92.700000000,94.330000000,91.890000000,3379372
2014-12-31T07:00:00Z,91.970000000,92.070000000,93.547000000,90.750000000,3329161
2014-12-31T07:00:00Z,91.970000000,92.070000000,93.547000000,90.750000000,3329161
2015-01-02T07:00:00Z,91.010000000,92.240000000,92.990000000,90.360000000,3463489
2015-01-05T07:00:00Z,89.960000000,86.680000000,90.780000000,86.020000000,6173633
2015-01-06T07:00:00Z,85.840000000,84.210000000,86.600000000,82.760000000,8150001
2015-01-07T07:00:00Z,85.180000000,83.680000000,85.730000000,82.720000000,5950338
2015-01-08T07:00:00Z,84.720000000,86.880000000,87.650000000,84.070000000,5840270
2015-01-09T07:00:00Z,87.020000000,87.460000000,88.030000000,86.010000000,4036602
2015-01-12T07:00:00Z,85.110000000,84.510000000,85.350000000,83.200000000,4810322
2015-01-13T07:00:00Z,84.970000000,85.060000000,86.660000000,84.050000000,5446131
2015-01-14T07:00:00Z,84.070000000,87.740000000,88.090000000,83.670000000,6698177
2015-01-15T07:00:00Z,89.040000000,86.530000000,89.500000000,86.450000000,4941725
2015-01-16T07:00:00Z,86.860000000,90.310000000,90.535000000,86.540000000,5483464
2015-01-20T07:00:00Z,89.090000000,89.330000000,89.779900000,87.520000000,5969472
2015-01-21T07:00:00Z,90.590000000,90.540000000,91.400000000,89.680000000,4911939
2015-01-22T07:00:00Z,91.380000000,90.360000000,91.380000000,88.580000000,4471638
2015-01-23T07:00:00Z,90.070000000,90.790000000,92.520000000,89.700000000,4433693
2015-01-26T07:00:00Z,91.230000000,92.330000000,92.390000000,90.150000000,3431089
2015-01-27T07:00:00Z,91.940000000,93.000000000,94.410000000,91.120000000,5282954
2015-01-28T07:00:00Z,92.330000000,88.100000000,92.686000000,87.762000000,5773627
2015-01-29T07:00:00Z,89.120000000,88.910000000,89.410000000,86.760000000,5188708
2015-01-30T07:00:00Z,88.160000000,89.030000000,90.070000000,87.400000000,7469935
2015-02-02T07:00:00Z,90.990000000,92.520000000,92.570000000,89.530000000,5615475
2015-02-03T07:00:00Z,94.720000000,96.310000000,97.880000000,94.650000000,8906563
2015-02-04T07:00:00Z,94.400000000,95.190000000,97.530000000,93.540000000,9869106
2015-02-05T07:00:00Z,95.710000000,96.190000000,97.285000000,95.160000000,5596560
2015-02-06T07:00:00Z,96.990000000,95.790000000,97.210000000,95.570000000,5297775
2015-02-09T07:00:00Z,96.600000000,95.950000000,97.230000000,95.780000000,4249896
2015-02-10T07:00:00Z,96.650000000,95.260000000,96.690000000,93.840000000,4308296
2015-02-11T07:00:00Z,93.840000000,93.200000000,94.090000000,92.150000000,6332334
2015-02-12T07:00:00Z,94.960000000,94.800000000,95.240000000,93.470000000,3944487
2015-02-13T07:00:00Z,95.940000000,96.920000000,96.970000000,95.250000000,4158472
2015-02-17T07:00:00Z,96.080000000,96.490000000,96.670000000,95.650000000,4234284
2015-02-18T07:00:00Z,94.810000000,95.310000000,96.490000000,94.500000000,4533965
2015-02-19T07:00:00Z,86.680000000,93.800000000,94.740000000,86.580000000,18682441
2015-02-20T07:00:00Z,93.090000000,91.080000000,93.460000000,90.070000000,7937824
2015-02-23T07:00:00Z,90.060000000,91.930000000,92.100000000,89.250000000,5501326
2015-02-24T07:00:00Z,92.850000000,91.610000000,93.000000000,91.260000000,4214973
2015-02-25T07:00:00Z,91.540000000,93.030000000,93.250000000,91.290000000,5787809
2015-02-26T07:00:00Z,91.810000000,90.130000000,92.250000000,89.610000000,5427108
2015-02-27T07:00:00Z,90.630000000,89.720000000,90.710000000,89.290000000,3837551
2015-03-02T07:00:00Z,89.080000000,89.060000000,89.200000000,87.080000000,5347819
2015-03-03T07:00:00Z,88.980000000,90.370000000,91.109900000,88.600000000,4381410
2015-03-04T07:00:00Z,90.200000000,90.490000000,90.950000000,88.550000000,3924790
2015-03-05T07:00:00Z,89.850000000,89.590000000,90.520000000,89.370000000,2688091
2015-03-06T07:00:00Z,88.920000000,88.570000000,90.000000000,88.230000000,4063583
2015-03-09T07:00:00Z,88.080000000,87.720000000,89.249900000,87.640000000,3443595
2015-03-10T07:00:00Z,86.880000000,86.190000000,88.570000000,86.150000000,4862440
2015-03-11T07:00:00Z,86.420000000,86.550000000,87.370000000,85.880000000,3973714
2015-03-12T07:00:00Z,87.050000000,85.710000000,87.190000000,85.620000000,3051652
2015-03-13T07:00:00Z,85.200000000,85.390000000,85.658400000,84.100000000,4415592
2015-03-16T07:00:00Z,85.110000000,87.900000000,88.030000000,85.060000000,4953790
2015-03-17T07:00:00Z,86.860000000,86.800000000,87.970000000,86.400000000,3798569
2015-03-18T07:00:00Z,86.080000000,90.660000000,91.370000000,86.000000000,5386755
2015-03-19T07:00:00Z,89.400000000,89.530000000,89.900000000,88.360000000,3558725
2015-03-20T07:00:00Z,89.750000000,90.680000000,91.935000000,89.430000000,5980026
2015-03-23T07:00:00Z,91.250000000,89.000000000,91.410200000,89.000000000,3200732
2015-03-24T07:00:00Z,89.200000000,88.840000000,89.944000000,88.640000000,2681222
2015-03-25T07:00:00Z,89.680000000,89.960000000,90.645000000,88.790000000,3664807
2015-03-26T07:00:00Z,91.490000000,91.360000000,91.930000000,90.250000000,4857083
2015-03-27T07:00:00Z,90.620000000,90.560000000,91.120000000,90.140000000,2539128
2015-03-30T07:00:00Z,91.640000000,92.140000000,92.500000000,90.780000000,3478914
2015-03-31T07:00:00Z,91.130000000,91.690000000,92.470000000,90.830000000,3576030
2015-04-01T07:00:00Z,92.040000000,91.220000000,93.350000000,91.060000000,3814311
2015-04-02T07:00:00Z,90.300000000,92.710000000,92.970000000,89.230000000,4596338
2015-04-06T07:00:00Z,93.360000000,94.870000000,95.400000000,93.300000000,4770004
2015-04-07T07:00:00Z,95.200000000,94.270000000,95.990000000,94.120000000,5233202
2015-04-08T07:00:00Z,95.010000000,94.040000000,95.580000000,93.800000000,3274411
2015-04-09T07:00:00Z,94.110000000,95.710000000,96.070000000,94.110000000,3408669
2015-04-10T07:00:00Z,95.870000000,96.590000000,96.600000000,95.250000000,2570412
2015-04-13T07:00:00Z,96.750000000,94.690000000,96.900000000,94.200000000,3111389
2015-04-14T07:00:00Z,95.660000000,96.460000000,96.950000000,95.340000000,3204352
2015-04-15T07:00:00Z,96.760000000,97.960000000,98.335000000,96.430000000,5859464
2015-04-16T07:00:00Z,97.830000000,98.000000000,98.950000000,97.170000000,4054436
2015-04-17T07:00:00Z,97.040000000,97.230000000,97.470000000,96.390000000,3201209
2015-04-20T07:00:00Z,97.180000000,97.740000000,99.010000000,97.180000000,3130708
2015-04-21T07:00:00Z,97.830000000,96.590000000,98.320000000,96.360000000,3238541
2015-04-22T07:00:00Z,96.940000000,97.700000000,98.600000000,96.300000000,2897780
2015-04-23T07:00:00Z,97.980000000,98.270000000,99.250000000,97.840000000,2708426
2015-04-24T07:00:00Z,97.900000000,96.720000000,97.970000000,95.910000000,3139607
2015-04-27T07:00:00Z,97.550000000,97.360000000,97.960000000,96.560000000,2980509
2015-04-28T07:00:00Z,97.640000000,98.460000000,98.810000000,97.640000000,3736627
2015-04-29T07:00:00Z,98.220000000,99.740000000,99.980000000,97.790000000,3902568
2015-04-30T07:00:00Z,100.000000000,98.950000000,100.440000000,98.480000000,3462023
2015-05-01T07:00:00Z,99.210000000,98.900000000,101.000000000,97.610000000,3584709
2015-05-04T07:00:00Z,99.110000000,99.390000000,101.360000000,98.550000000,7312741
2015-05-05T07:00:00Z,98.700000000,94.540000000,100.200000000,94.530000000,11761970
2015-05-06T07:00:00Z,96.210000000,95.080000000,96.860000000,94.490000000,5163486
2015-05-07T07:00:00Z,96.100000000,93.500000000,96.100000000,92.420000000,5197832
2015-05-08T07:00:00Z,94.480000000,93.500000000,94.500000000,92.555000000,4922339
2015-05-11T07:00:00Z,94.050000000,91.610000000,94.240000000,91.465000000,3952431
2015-05-12T07:00:00Z,91.760000000,93.410000000,93.590000000,91.710000000,3468510
2015-05-13T07:00:00Z,94.040000000,91.600000000,94.070000000,90.980000000,3548294
2015-05-14T07:00:00Z,91.990000000,90.730000000,92.075000000,90.680000000,3582206
2015-05-15T07:00:00Z,90.320000000,90.470000000,91.240000000,89.250000000,3267370
2015-05-18T07:00:00Z,90.560000000,91.800000000,92.035800000,89.900000000,3017958
2015-05-19T07:00:00Z,91.480000000,90.260000000,91.610000000,90.235000000,3588533
2015-05-20T07:00:00Z,90.600000000,90.460000000,90.720000000,89.760000000,3734401
2015-05-21T07:00:00Z,91.170000000,91.490000000,91.830200000,90.680000000,3957981
2015-05-22T07:00:00Z,90.400000000,90.260000000,91.389700000,90.070000000,3055520
2015-05-26T07:00:00Z,89.250000000,89.150000000,89.810000000,88.550000000,3920667
2015-05-27T07:00:00Z,89.130000000,89.000000000,89.940000000,88.510000000,3016885
2015-05-28T07:00:00Z,88.550000000,89.150000000,89.360000000,88.000000000,3790844
2015-05-29T07:00:00Z,89.420000000,88.690000000,89.520000000,88.260000000,3948896
2015-06-01T07:00:00Z,89.020000000,88.760000000,89.120000000,88.180000000,2886599
2015-06-02T07:00:00Z,89.020000000,89.770000000,90.350000000,88.210000000,3581554
2015-06-03T07:00:00Z,89.550000000,89.010000000,90.470000000,88.970000000,2158389
2015-06-04T07:00:00Z,88.230000000,87.380000000,89.130000000,87.280000000,3774189
2015-06-05T07:00:00Z,87.000000000,89.680000000,90.640000000,86.818000000,4429916
2015-06-08T07:00:00Z,89.370000000,89.110000000,89.960000000,88.630000000,2755687
2015-06-09T07:00:00Z,90.020000000,89.090000000,91.480000000,89.090000000,2660975
2015-06-10T07:00:00Z,90.390000000,90.410000000,90.710000000,89.660000000,2914822
2015-06-11T07:00:00Z,91.000000000,90.650000000,91.050000000,90.230000000,2300930
2015-06-12T07:00:00Z,90.160000000,89.530000000,90.430000000,89.120000000,2464075
2015-06-15T07:00:00Z,88.510000000,89.220000000,89.860000000,88.500000000,2795348
2015-06-16T07:00:00Z,89.070000000,90.080000000,90.362500000,89.026000000,2286365
2015-06-17T07:00:00Z,90.680000000,89.020000000,91.150000000,88.420000000,4998133
2015-06-18T07:00:00Z,89.760000000,88.810000000,90.130000000,88.540000000,3602476
2015-06-19T07:00:00Z,88.290000000,88.270000000,89.120000000,88.240000000,4298559
2015-06-22T07:00:00Z,88.600000000,88.080000000,88.670000000,87.450000000,2845624
2015-06-23T07:00:00Z,88.280000000,88.790000000,88.820000000,87.660000000,3613321
2015-06-24T07:00:00Z,88.540000000,88.340000000,89.070000000,88.100000000,3785853
2015-06-25T07:00:00Z,88.170000000,87.650000000,88.270000000,87.300000000,3797792
2015-06-26T07:00:00Z,87.600000000,88.060000000,88.700000000,87.080000000,11406641
2015-06-29T07:00:00Z,86.990000000,86.250000000,87.940000000,86.150000000,4022274
2015-06-30T07:00:00Z,86.990000000,87.550000000,87.900000000,86.340000000,3941448
2015-07-01T07:00:00Z,87.850000000,85.770000000,87.850000000,84.840000000,4644490
2015-07-02T07:00:00Z,85.950000000,85.670000000,86.700000000,85.585000000,2699914
2015-07-06T07:00:00Z,84.490000000,85.090000000,86.180000000,84.050000000,3513261
2015-07-07T07:00:00Z,85.780000000,86.720000000,87.100000000,83.830000000,5118308
2015-07-08T07:00:00Z,86.100000000,84.490000000,86.920000000,84.000000000,4681214
2015-07-09T07:00:00Z,85.990000000,85.300000000,87.350000000,85.180000000,3783964
2015-07-10T07:00:00Z,85.980000000,84.540000000,86.755000000,84.450000000,2903774
2015-07-13T07:00:00Z,84.530000000,84.210000000,84.790000000,83.470000000,3830171
2015-07-14T07:00:00Z,84.200000000,85.230000000,85.640000000,84.100000000,3276097
2015-07-15T07:00:00Z,84.620000000,83.250000000,85.230000000,83.050000000,3917347
2015-07-16T07:00:00Z,83.740000000,82.400000000,83.800000000,82.340000000,4019255
2015-07-17T07:00:00Z,81.970000000,80.500000000,82.150000000,80.260000000,6069336
2015-07-20T07:00:00Z,80.240000000,77.930000000,80.250000000,77.920000000,7054034
2015-07-21T07:00:00Z,78.090000000,77.330000000,78.380000000,76.940000000,6823693
2015-07-22T07:00:00Z,77.180000000,76.090000000,77.490000000,75.760000000,7205219
2015-07-23T07:00:00Z,76.200000000,76.320000000,76.820000000,75.470000000,6335408
2015-07-24T07:00:00Z,76.100000000,75.160000000,76.580000000,74.620000000,5850150
2015-07-27T07:00:00Z,74.100000000,73.190000000,74.730000000,72.865000000,5621305
2015-07-28T07:00:00Z,73.400000000,76.850000000,77.558900000,73.400000000,7887190
2015-07-29T07:00:00Z,76.500000000,77.740000000,79.010000000,76.500000000,6360574
2015-07-30T07:00:00Z,77.650000000,78.540000000,78.720000000,76.800000000,4539802
2015-07-31T07:00:00Z,78.000000000,77.190000000,78.310000000,77.000000000,4190210
2015-08-03T07:00:00Z,76.200000000,76.440000000,77.630000000,75.450000000,5136474
2015-08-04T07:00:00Z,77.080000000,76.740000000,77.770000000,76.350000000,3981908
2015-08-05T07:00:00Z,78.060000000,76.090000000,78.950000000,75.960000000,4896806
2015-08-06T07:00:00Z,75.650000000,77.680000000,78.340000000,75.300000000,6709536
2015-08-07T07:00:00Z,75.250000000,73.760000000,78.700000000,73.030000000,8476104
2015-08-10T07:00:00Z,73.670000000,76.270000000,76.480000000,73.620000000,6935217
2015-08-11T07:00:00Z,75.130000000,77.300000000,77.430000000,74.180000000,5976015
2015-08-12T07:00:00Z,77.320000000,79.930000000,80.260000000,76.500000000,8330618
2015-08-13T07:00:00Z,79.300000000,79.680000000,80.500000000,78.340000000,5889702
2015-08-14T07:00:00Z,79.500000000,79.930000000,80.880000000,78.800000000,3908053
2015-08-17T07:00:00Z,79.500000000,80.010000000,80.160000000,78.890000000,3747234
2015-08-18T07:00:00Z,79.710000000,80.410000000,80.540000000,79.280000000,3536669
2015-08-19T07:00:00Z,79.870000000,77.070000000,79.875000000,76.070000000,6122928
2015-08-20T07:00:00Z,77.020000000,76.730000000,78.440000000,76.610000000,6793498
2015-08-21T07:00:00Z,76.390000000,74.860000000,77.430000000,74.120000000,7769068
2015-08-24T07:00:00Z,70.000000000,69.260000000,73.280000000,68.150000000,9518764
2015-08-25T07:00:00Z,72.100000000,68.360000000,72.110000000,68.290000000,6720591
2015-08-26T07:00:00Z,70.210000000,70.990000000,71.040000000,68.400000000,6763714
2015-08-27T07:00:00Z,72.990000000,75.790000000,76.100000000,72.860000000,7160693
2015-08-28T07:00:00Z,75.500000000,77.310000000,79.340000000,75.410000000,6962188
2015-08-31T07:00:00Z,76.200000000,78.310000000,79.160000000,74.570000000,6863989
2015-09-01T07:00:00Z,76.020000000,76.020000000,77.320000000,75.180000000,6376917
2015-09-02T07:00:00Z,77.060000000,77.710000000,77.710000000,74.870000000,5356520
2015-09-03T07:00:00Z,78.250000000,77.450000000,80.160000000,76.790000000,6228140
2015-09-04T07:00:00Z,76.220000000,76.890000000,77.440000000,75.950000000,4700715
2015-09-08T07:00:00Z,77.580000000,77.660000000,78.180000000,75.450000000,5137591
2015-09-09T07:00:00Z,78.740000000,76.930000000,79.350000000,76.670000000,6445384
2015-09-10T07:00:00Z,77.570000000,78.060000000,78.240000000,76.130000000,4814677
2015-09-11T07:00:00Z,76.750000000,77.150000000,77.410000000,75.840000000,4571796
2015-09-14T07:00:00Z,77.150000000,76.430000000,77.150000000,76.040000000,3704992
2015-09-15T07:00:00Z,77.040000000,77.250000000,77.800000000,76.564500000,3650540
2015-09-16T07:00:00Z,77.680000000,79.940000000,80.170000000,77.460000000,3996039
2015-09-17T07:00:00Z,80.020000000,79.660000000,81.180000000,79.120000000,5499094
2015-09-18T07:00:00Z,78.860000000,76.260000000,79.190000000,75.930000000,6047594
2015-09-21T07:00:00Z,77.050000000,76.520000000,77.330000000,75.870000000,3258693
2015-09-22T07:00:00Z,75.430000000,75.220000000,76.660000000,74.690000000,3433933
2015-09-23T07:00:00Z,75.240000000,73.040000000,75.925000000,72.870000000,3891372
2015-09-24T07:00:00Z,72.290000000,73.260000000,73.720000000,71.480000000,4443613
2015-09-25T07:00:00Z,74.060000000,72.790000000,74.210000000,72.190000000,3894307
2015-09-28T07:00:00Z,71.740000000,69.430000000,72.188700000,69.100000000,4581857
2015-09-29T07:00:00Z,69.860000000,70.130000000,70.670000000,69.140000000,3773586
2015-09-30T07:00:00Z,70.850000000,72.800000000,72.940000000,70.670000000,4809186
2015-10-01T07:00:00Z,73.800000000,73.590000000,75.680000000,73.000000000,5684140
2015-10-02T07:00:00Z,72.670000000,77.060000000,77.450000000,71.590000000,6032611
2015-10-05T07:00:00Z,78.160000000,80.650000000,81.700000000,78.000000000,7429268
2015-10-06T07:00:00Z,80.720000000,82.840000000,83.730000000,80.550000000,6777047
2015-10-07T07:00:00Z,84.370000000,83.770000000,85.400000000,82.180000000,6959165
2015-10-08T07:00:00Z,83.310000000,87.040000000,87.270000000,83.070000000,6795014
2015-10-09T07:00:00Z,87.350000000,87.300000000,88.300000000,86.100000000,5802175
2015-10-12T07:00:00Z,87.120000000,86.030000000,88.000000000,84.930000000,4804228
2015-10-13T07:00:00Z,85.130000000,85.280000000,86.290000000,84.750000000,5605930
2015-10-14T07:00:00Z,84.990000000,85.780000000,86.140000000,84.760000000,3325357
2015-10-15T07:00:00Z,85.300000000,87.140000000,87.160000000,84.930000000,3610766
2015-10-16T07:00:00Z,87.750000000,87.500000000,88.000000000,86.560000000,4128452
2015-10-19T07:00:00Z,86.270000000,84.810000000,86.470000000,84.110000000,4256501
2015-10-20T07:00:00Z,84.570000000,84.870000000,85.650000000,83.950000000,3553364
2015-10-21T07:00:00Z,84.440000000,83.780000000,84.700000000,83.410000000,3007351
2015-10-22T07:00:00Z,84.630000000,85.800000000,86.170000000,84.370000000,2901135
2015-10-23T07:00:00Z,85.090000000,85.430000000,86.090000000,84.320000000,2674924
2015-10-26T07:00:00Z,85.100000000,83.390000000,85.290000000,83.250000000,3496534
2015-10-27T07:00:00Z,81.840000000,82.700000000,82.950000000,80.050000000,5147717
2015-10-28T07:00:00Z,82.980000000,84.790000000,86.170000000,82.350000000,3830015
2015-10-29T07:00:00Z,84.320000000,85.520000000,85.900000000,84.130000000,2984088
2015-10-30T07:00:00Z,85.780000000,85.850000000,86.680000000,84.370000000,3161572
2015-11-02T07:00:00Z,85.140000000,86.070000000,86.500000000,84.710000000,3597501
2015-11-03T07:00:00Z,86.900000000,88.450000000,89.520000000,86.280000000,5513885
2015-11-04T07:00:00Z,88.480000000,86.470000000,88.960000000,85.750100000,3908732
2015-11-05T07:00:00Z,86.280000000,86.470000000,88.220000000,85.450000000,4033751
2015-11-06T07:00:00Z,85.410000000,85.270000000,88.490000000,84.230000000,5272285
2015-11-09T07:00:00Z,85.940000000,85.370000000,87.180000000,84.490500000,3849949
2015-11-10T07:00:00Z,85.220000000,86.580000000,86.880000000,84.715000000,3909672
2015-11-11T07:00:00Z,86.350000000,83.320000000,87.900000000,83.190000000,3545517
2015-11-12T07:00:00Z,82.340000000,81.690000000,82.750000000,80.930000000,3436682
2015-11-13T07:00:00Z,81.650000000,82.250000000,82.950000000,80.504000000,3111772
2015-11-16T07:00:00Z,82.440000000,84.790000000,84.860000000,82.000000000,3052651
2015-11-17T07:00:00Z,84.290000000,82.980000000,84.310000000,81.926500000,3290260
2015-11-18T07:00:00Z,83.840000000,85.150000000,85.260000000,82.950000000,3200890
2015-11-19T07:00:00Z,84.260000000,82.650000000,84.640000000,81.744000000,2797857
2015-11-20T07:00:00Z,83.000000000,82.630000000,83.270000000,81.980000000,2980718
2015-11-23T07:00:00Z,82.360000000,82.570000000,83.379000000,82.060000000,2718656
2015-11-24T07:00:00Z,83.300000000,85.140000000,85.650000000,83.160000000,4421124
2015-11-25T07:00:00Z,84.240000000,83.530000000,84.630000000,83.200000000,3037031
2015-11-27T07:00:00Z,82.880000000,82.020000000,83.270000000,81.899100000,1446573
2015-11-30T07:00:00Z,82.410000000,83.430000000,84.639600000,82.200000000,3833480
2015-12-01T07:00:00Z,83.450000000,84.050000000,84.130000000,83.020000000,2584237
2015-12-02T07:00:00Z,83.330000000,80.860000000,84.055000000,80.410000000,4543302
2015-12-03T07:00:00Z,81.640000000,80.990000000,82.480000000,80.250000000,4674971
2015-12-04T07:00:00Z,79.290000000,80.490000000,80.840000000,78.500000000,4754216
2015-12-07T07:00:00Z,77.880000000,76.190000000,78.400000000,74.550000000,6354450
2015-12-08T07:00:00Z,74.720000000,77.110000000,77.880000000,73.930000000,5336845
2015-12-09T07:00:00Z,77.470000000,78.380000000,80.400000000,76.875000000,5377123
2015-12-10T07:00:00Z,77.840000000,78.180000000,80.150000000,77.400000000,5033285
2015-12-11T07:00:00Z,77.320000000,74.890000000,79.430000000,74.760000000,4961982
2015-12-14T07:00:00Z,74.360000000,76.860000000,77.030000000,73.720000000,5854629
2015-12-15T07:00:00Z,77.970000000,77.300000000,78.660000000,76.980000000,5700995
2015-12-16T07:00:00Z,77.290000000,75.800000000,77.620000000,75.720000000,4961252
2015-12-17T07:00:00Z,75.470000000,73.300000000,75.980000000,71.930000000,6109966
2015-12-18T07:00:00Z,73.190000000,71.430000000,73.870000000,71.410000000,6633829
2015-12-21T07:00:00Z,71.600000000,70.250000000,71.850000000,69.302500000,5078834
2015-12-22T07:00:00Z,70.330000000,69.810000000,71.580000000,69.580000000,5234648
2015-12-23T07:00:00Z,71.400000000,73.690000000,73.760000000,70.790000000,5352682
2015-12-24T07:00:00Z,73.750000000,73.420000000,73.980000000,72.650000000,1792921
2015-12-28T07:00:00Z,71.760000000,70.490000000,71.980000000,70.205000000,3998011
2015-12-29T07:00:00Z,71.880000000,71.090000000,72.330000000,70.550000000,3168438
2015-12-30T07:00:00Z,69.800000000,70.610000000,71.090000000,69.740000000,3354675
2015-12-31T07:00:00Z,70.110000000,70.790000000,71.590000000,70.000000000,3117340
2015-12-31T07:00:00Z,70.110000000,70.790000000,71.590000000,70.000000000,3117340
2016-01-04T07:00:00Z,70.800000000,69.680000000,71.000000000,68.832000000,5136714
2016-01-05T07:00:00Z,70.060000000,70.130000000,70.540000000,68.570000000,3665194
2016-01-06T07:00:00Z,68.500000000,67.320000000,68.500000000,66.700000000,6626717
2016-01-07T07:00:00Z,65.920000000,65.460000000,69.010000000,65.190000000,5297934
2016-01-08T07:00:00Z,65.860000000,65.520000000,66.430000000,64.770000000,4990105
2016-01-11T07:00:00Z,65.880000000,63.670000000,66.060000000,62.915000000,5356702
2016-01-12T07:00:00Z,64.650000000,62.920000000,65.179900000,61.349800000,7124494
2016-01-13T07:00:00Z,63.420000000,64.170000000,64.655000000,62.590000000,7745432
2016-01-14T07:00:00Z,64.670000000,65.260000000,66.610000000,63.610000000,7134868
2016-01-15T07:00:00Z,62.010000000,62.970000000,64.020000000,61.010000000,5870594
2016-01-19T07:00:00Z,63.150000000,60.980000000,63.630000000,59.480000000,5476957
2016-01-20T07:00:00Z,59.730000000,60.240000000,60.880000000,57.150000000,10621636
2016-01-21T07:00:00Z,60.240000000,63.750000000,64.250000000,59.410000000,7404077
2016-01-22T07:00:00Z,66.440000000,66.020000000,67.490000000,64.670000000,6827131
2016-01-25T07:00:00Z,64.620000000,61.590000000,66.150000000,61.510000000,4969205
2016-01-26T07:00:00Z,63.000000000,66.030000000,66.130000000,62.290000000,6788957
2016-01-27T07:00:00Z,65.090000000,66.070000000,67.930000000,64.490000000,7071277
2016-01-28T07:00:00Z,69.230000000,68.630000000,69.790000000,66.645200000,6737656
2016-01-29T07:00:00Z,69.170000000,71.020000000,71.180000000,69.020000000,6883204
2016-02-01T07:00:00Z,69.300000000,69.090000000,70.000000000,67.690000000,4489147
2016-02-02T07:00:00Z,67.010000000,67.160000000,69.370000000,66.000000000,5463616
2016-02-03T07:00:00Z,68.610000000,70.190000000,70.270000000,66.321000000,5381169
2016-02-04T07:00:00Z,70.670000000,68.440000000,71.390000000,68.140000000,5174334
2016-02-05T07:00:00Z,67.680000000,67.060000000,67.680000000,65.620000000,5514373
2016-02-08T07:00:00Z,65.660000000,68.430000000,68.800000000,64.750000000,6274494
2016-02-09T07:00:00Z,67.210000000,65.590000000,67.970000000,64.340000000,6382825
2016-02-10T07:00:00Z,65.450000000,65.790000000,66.780000000,63.910000000,4302085
2016-02-11T07:00:00Z,63.620000000,65.560000000,65.990000000,63.060000000,5413000
2016-02-12T07:00:00Z,66.820000000,67.700000000,68.760000000,65.980000000,5476817
2016-02-16T07:00:00Z,68.770000000,67.890000000,69.090000000,66.250000000,3747915
2016-02-17T07:00:00Z,69.000000000,70.820000000,70.940000000,67.600000000,6288161
2016-02-18T07:00:00Z,70.990000000,69.460000000,71.230000000,69.340000000,3668080
2016-02-19T07:00:00Z,68.610000000,69.710000000,69.730000000,68.060000000,3575080
2016-02-22T07:00:00Z,71.540000000,72.210000000,72.770000000,70.620000000,4684646
2016-02-23T07:00:00Z,71.690000000,68.020000000,71.750000000,67.650000000,4418684
2016-02-24T07:00:00Z,67.230000000,69.520000000,69.940000000,66.750000000,4151505
2016-02-25T07:00:00Z,69.190000000,68.500000000,70.300000000,67.170000000,5356663
2016-02-26T07:00:00Z,68.000000000,67.500000000,69.700000000,65.740000000,10600825
2016-02-29T07:00:00Z,67.420000000,64.740000000,67.560000000,64.720000000,7950263
2016-03-01T07:00:00Z,65.100000000,65.020000000,65.465800000,62.530000000,7542893
2016-03-02T07:00:00Z,64.950000000,67.000000000,67.120000000,64.140000000,5243390
2016-03-03T07:00:00Z,66.950000000,69.250000000,69.670000000,66.180000000,6644356
2016-03-04T07:00:00Z,69.910000000,71.410000000,71.520000000,68.740000000,7930767
2016-03-07T07:00:00Z,71.120000000,75.470000000,75.530000000,70.220000000,8446319
2016-03-08T07:00:00Z,74.650000000,70.560000000,74.840000000,70.480000000,6598941
2016-03-09T07:00:00Z,71.590000000,72.260000000,72.500000000,69.810000000,4693466
2016-03-10T07:00:00Z,71.160000000,72.270000000,72.860000000,70.305000000,4558447
2016-03-11T07:00:00Z,73.140000000,75.180000000,75.890000000,72.990000000,4281958
2016-03-14T07:00:00Z,73.710000000,74.780000000,75.450000000,73.290000000,3188435
2016-03-15T07:00:00Z,73.820000000,73.610000000,74.370000000,71.900000000,3910475
2016-03-16T07:00:00Z,74.370000000,75.040000000,75.270000000,72.685000000,4881804
2016-03-17T07:00:00Z,75.660000000,76.500000000,77.450000000,75.180000000,4675149
2016-03-18T07:00:00Z,77.500000000,75.630000000,77.700000000,74.630000000,7455577
2016-03-21T07:00:00Z,75.020000000,75.960000000,76.320000000,74.590000000,2899578
2016-03-22T07:00:00Z,75.390000000,75.900000000,77.250000000,75.380000000,2844325
2016-03-23T07:00:00Z,75.450000000,74.340000000,76.540000000,73.840000000,3840738
2016-03-24T07:00:00Z,72.420000000,74.300000000,74.910000000,72.320500000,3621436
2016-03-28T07:00:00Z,74.300000000,74.530000000,74.759900000,73.520000000,2628650
2016-03-29T07:00:00Z,73.170000000,75.450000000,75.640000000,73.140000000,3242950
2016-03-30T07:00:00Z,76.440000000,73.660000000,76.500000000,73.590000000,4136216
2016-03-31T07:00:00Z,73.480000000,72.580000000,74.420000000,72.370000000,5664728
2016-04-01T07:00:00Z,70.850000000,72.040000000,72.470000000,70.410100000,5143426
2016-04-04T07:00:00Z,72.480000000,70.310000000,72.630000000,70.110000000,3452993
2016-04-05T07:00:00Z,69.890000000,70.540000000,71.360000000,69.660000000,3467458
2016-04-06T07:00:00Z,70.680000000,71.220000000,71.710000000,69.760000000,4159188
2016-04-07T07:00:00Z,70.790000000,71.450000000,72.080000000,70.390000000,3017643
2016-04-08T07:00:00Z,73.370000000,73.470000000,73.500000000,72.440000000,3215857
2016-04-11T07:00:00Z,73.880000000,74.010000000,74.780000000,73.700000000,3457517
2016-04-12T07:00:00Z,74.460000000,77.510000000,77.830000000,73.540000000,5527980
2016-04-13T07:00:00Z,77.610000000,77.780000000,78.180000000,76.320000000,4629055
2016-04-14T07:00:00Z,78.030000000,77.810000000,78.630000000,77.000000000,2666691
2016-04-15T07:00:00Z,77.420000000,75.710000000,77.420000000,75.070000000,4868804
2016-04-18T07:00:00Z,74.040000000,77.440000000,77.680000000,73.570000000,3586372
2016-04-19T07:00:00Z,78.520000000,79.130000000,80.180000000,77.700000000,3829927
2016-04-20T07:00:00Z,78.130000000,79.370000000,80.060000000,76.640000000,4066163
2016-04-21T07:00:00Z,79.380000000,79.160000000,80.290000000,78.710000000,3336607
2016-04-22T07:00:00Z,79.670000000,80.920000000,81.780000000,79.495000000,3157284
2016-04-25T07:00:00Z,80.390000000,79.760000000,80.520000000,79.040000000,2828067
2016-04-26T07:00:00Z,80.515000000,82.780000000,82.860100000,79.975000000,3654744
2016-04-27T07:00:00Z,83.690000000,84.510000000,85.430000000,83.040000000,3795123
2016-04-28T07:00:00Z,83.850000000,81.890000000,84.750000000,81.600000000,3265960
2016-04-29T07:00:00Z,82.710000000,82.620000000,83.240000000,81.030000000,4570581
2016-05-02T07:00:00Z,82.330000000,82.780000000,83.060000000,80.680000000,4300747
2016-05-03T07:00:00Z,81.440000000,80.630000000,82.230000000,80.050000000,3808622
2016-05-04T07:00:00Z,80.610000000,79.340000000,82.000000000,78.810000000,3757590
2016-05-05T07:00:00Z,80.440000000,81.260000000,82.749900000,80.150000000,5206822
2016-05-06T07:00:00Z,78.830000000,78.680000000,81.650000000,78.075000000,5070763
2016-05-09T07:00:00Z,78.210000000,78.640000000,78.830000000,77.035000000,3002665
2016-05-10T07:00:00Z,78.770000000,79.730000000,79.850000000,78.714800000,4089674
2016-05-11T07:00:00Z,79.380000000,80.320000000,81.208800000,78.220000000,3191993
2016-05-12T07:00:00Z,81.390000000,80.500000000,81.850000000,79.550000000,2278200
2016-05-13T07:00:00Z,80.210000000,78.650000000,80.970000000,78.600000000,3219066
2016-05-16T07:00:00Z,79.640000000,80.690000000,81.410000000,79.640000000,2992771
2016-05-17T07:00:00Z,80.800000000,81.570000000,82.480000000,80.390000000,3952342
2016-05-18T07:00:00Z,81.360000000,80.410000000,82.150000000,79.880000000,2492768
2016-05-19T07:00:00Z,79.150000000,80.080000000,80.190000000,77.660000000,3798518
2016-05-20T07:00:00Z,80.590000000,80.920000000,81.310000000,79.540000000,3322765
2016-05-23T07:00:00Z,79.800000000,81.270000000,81.870000000,79.730000000,3215278
2016-05-24T07:00:00Z,81.790000000,82.490000000,83.080000000,80.650000000,3312882
2016-05-25T07:00:00Z,82.500000000,83.080000000,83.380000000,82.290000000,2895368
2016-05-26T07:00:00Z,83.550000000,82.300000000,83.940000000,82.210000000,2367255
2016-05-27T07:00:00Z,81.940000000,81.570000000,82.260000000,80.770000000,2100605
2016-05-31T07:00:00Z,82.030000000,81.360000000,82.480000000,81.080000000,3009226
2016-06-01T07:00:00Z,80.650000000,80.750000000,81.305000000,80.000000000,3337060
2016-06-02T07:00:00Z,79.960000000,80.490000000,80.580000000,79.200000000,2069761
2016-06-03T07:00:00Z,80.240000000,79.710000000,80.800000000,79.110000000,2134529
2016-06-06T07:00:00Z,80.610000000,81.270000000,81.420000000,79.970000000,2037527
2016-06-07T07:00:00Z,81.990000000,85.420000000,85.630000000,81.910000000,4369451
2016-06-08T07:00:00Z,86.600000000,85.360000000,86.870000000,85.140000000,3796762
2016-06-09T07:00:00Z,84.170000000,84.580000000,85.440000000,84.000000000,3588127
2016-06-10T07:00:00Z,83.320000000,81.560000000,84.340000000,81.330000000,2983566
2016-06-13T07:00:00Z,80.990000000,81.390000000,83.098500000,80.510000000,2283115
2016-06-14T07:00:00Z,81.220000000,82.980000000,83.050000000,81.070000000,2335718
2016-06-15T07:00:00Z,82.730000000,82.440000000,83.540000000,81.500000000,2150814
2016-06-16T07:00:00Z,81.250000000,80.180000000,81.345000000,79.330000000,3139796
2016-06-17T07:00:00Z,80.950000000,80.890000000,81.550000000,80.340000000,3280766
2016-06-20T07:00:00Z,82.330000000,83.190000000,83.390000000,81.810000000,3214989
2016-06-21T07:00:00Z,82.990000000,84.910000000,85.220000000,82.830000000,3539802
2016-06-22T07:00:00Z,84.900000000,83.600000000,85.090000000,83.430000000,2415622
2016-06-23T07:00:00Z,84.760000000,84.500000000,84.970000000,83.970000000,2413209
2016-06-24T07:00:00Z,81.580000000,81.060000000,82.880000000,80.810000000,4942171
2016-06-27T07:00:00Z,80.000000000,78.590000000,80.800000000,78.110000000,4272144
2016-06-28T07:00:00Z,80.650000000,81.750000000,81.770000000,79.850000000,3105723
2016-06-29T07:00:00Z,82.800000000,83.440000000,84.010000000,82.410000000,2870274
2016-06-30T07:00:00Z,83.440000000,83.420000000,83.959800000,82.640000000,3364026
2016-07-01T07:00:00Z,83.780000000,84.780000000,85.730000000,83.370000000,2675525
2016-07-05T07:00:00Z,83.120000000,82.760000000,84.030000000,81.670000000,2704752
2016-07-06T07:00:00Z,82.030000000,82.760000000,83.110000000,81.860000000,2207321
2016-07-07T07:00:00Z,83.830000000,81.610000000,83.860000000,81.120000000,2145773
2016-07-08T07:00:00Z,82.840000000,82.540000000,83.070000000,81.573800000,1980107
2016-07-11T07:00:00Z,82.940000000,82.900000000,83.890000000,82.600000000,1689166
2016-07-12T07:00:00Z,84.550000000,85.140000000,85.960000000,84.140000000,2860734
2016-07-13T07:00:00Z,84.590000000,83.840000000,85.070000000,82.620000000,2811984
2016-07-14T07:00:00Z,84.840000000,84.630000000,84.930000000,83.880000000,2018117
2016-07-15T07:00:00Z,84.510000000,84.100000000,84.900000000,83.640000000,2473836
2016-07-18T07:00:00Z,83.920000000,83.250000000,84.310000000,82.740000000,1864795
2016-07-19T07:00:00Z,82.870000000,82.040000000,83.150000000,81.860000000,2173752
2016-07-20T07:00:00Z,81.530000000,82.110000000,82.860000000,80.920000000,2156700
2016-07-21T07:00:00Z,82.150000000,81.490000000,83.460000000,81.200000000,1859092
2016-07-22T07:00:00Z,82.050000000,80.980000000,82.200000000,80.190000000,2620092
2016-07-25T07:00:00Z,80.380000000,78.750000000,80.560000000,78.190000000,4280286
2016-07-26T07:00:00Z,78.470000000,80.450000000,80.450000000,78.040000000,2547963
2016-07-27T07:00:00Z,80.760000000,79.780000000,81.950000000,79.645000000,3450208
2016-07-28T07:00:00Z,79.740000000,79.900000000,80.710000000,79.250000000,2537360
2016-07-29T07:00:00Z,79.000000000,81.700000000,81.890000000,78.860000000,2886943
2016-08-01T07:00:00Z,81.040000000,78.700000000,81.130000000,78.260000000,3591753
2016-08-02T07:00:00Z,79.370000000,79.890000000,80.360000000,78.520000000,3039628
2016-08-03T07:00:00Z,80.000000000,82.370000000,82.420000000,79.670000000,3036515
2016-08-04T07:00:00Z,82.030000000,84.240000000,84.300000000,81.600000000,4243041
2016-08-05T07:00:00Z,87.230000000,90.160000000,90.770000000,86.750000000,8928252
2016-08-08T07:00:00Z,90.970000000,90.660000000,92.000000000,90.470000000,4506052
2016-08-09T07:00:00Z,91.290000000,90.380000000,91.390000000,89.900000000,3064217
2016-08-10T07:00:00Z,90.870000000,89.420000000,90.870000000,89.200000000,2664129
2016-08-11T07:00:00Z,90.070000000,90.280000000,91.150000000,89.080000000,3445361
2016-08-12T07:00:00Z,90.650000000,91.200000000,91.420000000,90.000000000,1912569
2016-08-15T07:00:00Z,91.510000000,90.550000000,91.970000000,90.540000000,2794091
2016-08-16T07:00:00Z,90.190000000,90.260000000,90.800000000,88.840000000,2463394
2016-08-17T07:00:00Z,89.810000000,90.220000000,90.660000000,89.300000000,3160436
2016-08-18T07:00:00Z,90.820000000,91.730000000,92.100000000,90.290000000,4122216
2016-08-19T07:00:00Z,91.170000000,91.760000000,91.935000000,90.660000000,2338553
2016-08-22T07:00:00Z,90.830000000,91.170000000,91.840000000,90.270000000,2276099
2016-08-23T07:00:00Z,90.730000000,91.210000000,91.850000000,90.710000000,2986408
2016-08-24T07:00:00Z,90.770000000,90.730000000,91.400000000,90.560000000,2329222
2016-08-25T07:00:00Z,90.700000000,90.250000000,90.850000000,90.000000000,1929886
2016-08-26T07:00:00Z,90.730000000,90.180000000,91.509000000,89.920000000,1641064
2016-08-29T07:00:00Z,89.980000000,91.140000000,91.330000000,89.610000000,2226139
2016-08-30T07:00:00Z,91.270000000,90.070000000,91.690000000,89.640000000,1618365
2016-08-31T07:00:00Z,89.760000000,88.490000000,89.900000000,88.020000000,2709139
2016-09-01T07:00:00Z,88.310000000,88.550000000,88.640000000,87.440000000,2420698
2016-09-02T07:00:00Z,89.270000000,88.910000000,89.500000000,88.685000000,1938356
2016-09-06T07:00:00Z,90.250000000,94.830000000,95.200000000,90.060000000,7421615
2016-09-07T07:00:00Z,94.780000000,94.320000000,95.160000000,94.040000000,4271513
2016-09-08T07:00:00Z,95.180000000,95.430000000,95.930000000,94.160000000,3697251
2016-09-09T07:00:00Z,94.360000000,92.650000000,94.870000000,92.620000000,3013286
2016-09-12T07:00:00Z,92.050000000,92.980000000,93.530000000,91.350000000,2498803
2016-09-13T07:00:00Z,91.610000000,90.400000000,92.130000000,89.530000000,3985874
2016-09-14T07:00:00Z,89.880000000,88.450000000,90.820000000,88.170000000,3673725
2016-09-15T07:00:00Z,88.850000000,90.950000000,92.390000000,88.490000000,3946570
2016-09-16T07:00:00Z,89.540000000,90.970000000,91.460000000,89.270000000,4559711
2016-09-19T07:00:00Z,91.660000000,90.050000000,91.870000000,90.020000000,3739977
2016-09-20T07:00:00Z,90.160000000,90.400000000,91.850000000,90.040100000,3050139
2016-09-21T07:00:00Z,91.560000000,93.520000000,93.790000000,91.100000000,3189143
2016-09-22T07:00:00Z,94.610000000,92.610000000,95.000000000,92.430000000,3047683
2016-09-23T07:00:00Z,92.250000000,89.750000000,92.362700000,89.400000000,3679821
2016-09-26T07:00:00Z,90.220000000,89.260000000,90.630000000,89.010000000,2131450
2016-09-27T07:00:00Z,88.150000000,88.560000000,89.000000000,87.175000000,2939020
2016-09-28T07:00:00Z,89.460000000,93.960000000,94.580000000,88.570000000,4533827
2016-09-29T07:00:00Z,94.280000000,95.050000000,95.940000000,93.140000000,4486465
2016-09-30T07:00:00Z,95.550000000,96.710000000,97.200000000,94.690000000,4006452
2016-10-03T07:00:00Z,96.270000000,96.110000000,96.710000000,95.060000000,2318565
2016-10-04T07:00:00Z,96.320000000,95.140000000,96.369000000,94.505200000,1724720
2016-10-05T07:00:00Z,96.370000000,97.380000000,98.320000000,96.090000000,3284513
2016-10-06T07:00:00Z,97.550000000,97.140000000,98.060000000,96.390000000,1790213
2016-10-07T07:00:00Z,96.880000000,96.440000000,97.330000000,96.050000000,1742934
2016-10-10T07:00:00Z,97.280000000,97.290000000,98.100000000,97.130000000,1963552
2016-10-11T07:00:00Z,96.750000000,96.050000000,97.069900000,95.720000000,2099930
2016-10-12T07:00:00Z,95.880000000,96.300000000,96.760000000,95.150000000,2415752
2016-10-13T07:00:00Z,95.430000000,95.500000000,95.930000000,93.990000000,2252434
2016-10-14T07:00:00Z,96.270000000,94.480000000,96.270000000,93.910000000,2526786
2016-10-17T07:00:00Z,94.460000000,93.780000000,94.950000000,93.051400000,2100090
2016-10-18T07:00:00Z,94.960000000,93.130000000,95.160000000,92.940000000,2735372
2016-10-19T07:00:00Z,94.260000000,95.060000000,96.180000000,94.000000000,3163808
2016-10-20T07:00:00Z,93.970000000,94.910000000,95.500000000,93.770000000,2472183
2016-10-21T07:00:00Z,94.190000000,93.880000000,95.020000000,93.640000000,2729648
2016-10-24T07:00:00Z,93.980000000,93.620000000,94.670000000,92.280000000,2568962
2016-10-25T07:00:00Z,93.480000000,92.670000000,94.190000000,92.570000000,1429135
2016-10-26T07:00:00Z,91.850000000,92.140000000,93.100000000,90.380000000,3286408
2016-10-27T07:00:00Z,92.510000000,91.740000000,92.890000000,91.300000000,3581326
2016-10-28T07:00:00Z,91.650000000,90.800000000,94.090000000,90.680000000,3269761
2016-10-31T07:00:00Z,90.660000000,90.420000000,91.230000000,90.180000000,2406920
2016-11-01T07:00:00Z,91.320000000,91.160000000,92.223000000,89.900000000,2496014
2016-11-02T07:00:00Z,89.910000000,90.940000000,91.790000000,88.940000000,3302628
2016-11-03T07:00:00Z,90.880000000,92.080000000,92.880000000,90.590000000,4157869
2016-11-04T07:00:00Z,94.870000000,91.800000000,96.000000000,91.510000000,6775080
2016-11-07T07:00:00Z,93.600000000,93.430000000,93.600000000,92.210000000,2988167
2016-11-08T07:00:00Z,92.900000000,93.360000000,94.100000000,92.570100000,2382312
2016-11-09T07:00:00Z,93.350000000,93.430000000,94.670000000,92.515000000,4685943
2016-11-10T07:00:00Z,92.640000000,92.630000000,93.700000000,92.060000000,2983016
2016-11-11T07:00:00Z,92.070000000,91.410000000,92.540000000,90.120000000,2340304
2016-11-14T07:00:00Z,91.190000000,92.680000000,92.800000000,90.090000000,2467001
2016-11-15T07:00:00Z,94.030000000,94.570000000,94.990000000,93.050000000,8288424
2016-11-16T07:00:00Z,94.510000000,95.220000000,96.019900000,94.050000000,4103429
2016-11-17T07:00:00Z,96.100000000,92.340000000,96.575000000,92.040000000,5877707
2016-11-18T07:00:00Z,92.750000000,93.150000000,94.276700000,92.380000000,2755401
2016-11-21T07:00:00Z,95.000000000,95.670000000,97.000000000,94.860000000,4642425
2016-11-22T07:00:00Z,95.790000000,95.270000000,96.200000000,93.420000000,3867772
2016-11-23T07:00:00Z,94.790000000,97.000000000,97.700000000,94.640000000,2680677
2016-11-25T07:00:00Z,96.390000000,95.980000000,96.805000000,95.190000000,1518348
2016-11-28T07:00:00Z,96.640000000,93.470000000,96.840000000,93.270000000,3031187
2016-11-29T07:00:00Z,91.600000000,92.440000000,93.380000000,90.000000000,4010441
2016-11-30T07:00:00Z,97.310000000,102.520000000,103.070000000,97.090000000,10120960
2016-12-01T07:00:00Z,105.710000000,104.750000000,107.470000000,103.850000000,6505337
2016-12-02T07:00:00Z,104.810000000,103.740000000,105.470000000,103.390000000,4078342
2016-12-05T07:00:00Z,104.880000000,104.460000000,106.810000000,104.320000000,5883879
2016-12-06T07:00:00Z,103.520000000,103.970000000,105.300000000,102.560000000,3539660
2016-12-07T07:00:00Z,103.920000000,103.530000000,104.970000000,102.690000000,3777737
2016-12-08T07:00:00Z,104.030000000,104.930000000,105.250000000,102.363900000,6189119
2016-12-09T07:00:00Z,105.590000000,106.450000000,106.990000000,105.350000000,4049614
2016-12-12T07:00:00Z,109.100000000,105.830000000,109.370000000,105.194200000,5758468
2016-12-13T07:00:00Z,107.000000000,108.010000000,109.130000000,105.800000000,3912633
2016-12-14T07:00:00Z,106.690000000,104.210000000,107.470000000,104.080000000,4010252
2016-12-15T07:00:00Z,103.030000000,103.920000000,105.050000000,102.540000000,4646788
2016-12-16T07:00:00Z,104.090000000,104.000000000,104.590000000,102.790000000,8906260
2016-12-19T07:00:00Z,104.270000000,103.480000000,104.400000000,103.130000000,2238892
2016-12-20T07:00:00Z,104.200000000,103.160000000,104.340000000,102.710000000,2383138
2016-12-21T07:00:00Z,103.750000000,102.550000000,103.860000000,102.330000000,2365152
2016-12-22T07:00:00Z,102.670000000,103.130000000,103.330000000,101.870000000,2722379
2016-12-23T07:00:00Z,102.700000000,102.030000000,103.039400000,101.620000000,1706423
2016-12-27T07:00:00Z,102.820000000,102.540000000,103.120000000,102.320000000,1410823
2016-12-28T07:00:00Z,102.490000000,101.650000000,102.830000000,101.350000000,1896105
2016-12-29T07:00:00Z,101.600000000,101.280000000,101.950000000,100.540000000,1517650
2016-12-30T07:00:00Z,101.150000000,101.100000000,102.180000000,100.730000000,2178158
2016-12-30T07:00:00Z,101.150000000,101.100000000,102.180000000,100.730000000,2178158
2017-01-03T07:00:00Z,102.630000000,103.540000000,104.630000000,101.830000000,4151205
2017-01-04T07:00:00Z,104.250000000,103.620000000,104.470000000,102.970000000,2417921
2017-01-05T07:00:00Z,103.630000000,104.180000000,104.850000000,103.420000000,3084811
2017-01-06T07:00:00Z,104.610000000,105.210000000,105.710000000,103.710600000,2418326
2017-01-09T07:00:00Z,104.320000000,103.020000000,104.580000000,102.820000000,3382593
2017-01-10T07:00:00Z,103.230000000,103.400000000,104.400000000,102.870000000,2913760
2017-01-11T07:00:00Z,103.560000000,104.920000000,105.040000000,102.730000000,3542882
2017-01-12T07:00:00Z,105.510000000,105.370000000,106.510000000,104.840000000,4671749
2017-01-13T07:00:00Z,104.840000000,105.390000000,106.080000000,104.265000000,2580629
2017-01-17T07:00:00Z,105.950000000,105.480000000,106.760000000,105.450000000,3881138
2017-01-18T07:00:00Z,105.340000000,105.400000000,105.710000000,104.730000000,2527915
2017-01-19T07:00:00Z,105.500000000,105.190000000,106.210000000,104.455000000,2425809
2017-01-20T07:00:00Z,106.230000000,105.470000000,106.790000000,105.300000000,2488136
2017-01-23T07:00:00Z,104.720000000,103.460000000,105.100000000,103.340000000,3045469
2017-01-24T07:00:00Z,104.490000000,103.680000000,104.620000000,102.910000000,2680540
2017-01-25T07:00:00Z,103.630000000,103.900000000,104.390000000,103.240000000,2798101
2017-01-26T07:00:00Z,104.100000000,104.390000000,105.260000000,103.900000000,2772648
2017-01-27T07:00:00Z,104.160000000,102.900000000,104.160000000,102.775000000,2343629
2017-01-30T07:00:00Z,102.190000000,101.200000000,102.760000000,99.570000000,2975581
2017-01-31T07:00:00Z,101.350000000,101.580000000,101.620000000,100.100000000,2447528
2017-02-01T07:00:00Z,102.190000000,101.000000000,102.630000000,100.050000000,3028543
2017-02-02T07:00:00Z,101.140000000,99.710000000,101.480000000,98.940000000,5064381
2017-02-03T07:00:00Z,99.680000000,100.940000000,102.180000000,99.210000000,3520889
2017-02-06T07:00:00Z,101.000000000,99.700000000,101.050000000,99.430000000,1802425
2017-02-07T07:00:00Z,99.250000000,97.190000000,99.500000000,95.270000000,5157970
2017-02-08T07:00:00Z,96.600000000,98.140000000,98.490000000,95.280000000,3445423
2017-02-09T07:00:00Z,99.100000000,99.810000000,100.290000000,98.450000000,2927008
2017-02-10T07:00:00Z,101.230000000,101.440000000,102.029900000,100.570000000,3088973
2017-02-13T07:00:00Z,100.910000000,100.350000000,101.380000000,100.140000000,1945114
2017-02-14T07:00:00Z,100.330000000,101.230000000,101.480000000,99.020000000,3862460
2017-02-15T07:00:00Z,100.910000000,100.750000000,101.470000000,100.350000000,2093995
2017-02-16T07:00:00Z,101.060000000,100.170000000,101.480000000,99.840000000,3154050
2017-02-17T07:00:00Z,99.910000000,99.030000000,100.020000000,98.430000000,3023215
2017-02-21T07:00:00Z,100.410000000,99.470000000,100.850000000,99.430000000,2737205
2017-02-22T07:00:00Z,98.760000000,97.530000000,99.200000000,97.460000000,2596450
2017-02-23T07:00:00Z,99.190000000,97.570000000,99.190000000,96.550000000,3212212
2017-02-24T07:00:00Z,96.520000000,96.300000000,97.500000000,95.650000000,3590310
2017-02-27T07:00:00Z,96.780000000,97.910000000,98.230000000,96.300000000,5156920
2017-02-28T07:00:00Z,99.500000000,96.990000000,99.550000000,95.290000000,6369265
2017-03-01T07:00:00Z,98.250000000,100.050000000,100.420000000,98.010000000,3775915
2017-03-02T07:00:00Z,99.180000000,98.470000000,99.710000000,98.235000000,3049687
2017-03-03T07:00:00Z,98.500000000,98.570000000,99.305000000,98.118900000,2075353
2017-03-06T07:00:00Z,98.620000000,100.070000000,100.380000000,97.800000000,3106089
2017-03-07T07:00:00Z,100.400000000,99.530000000,100.540000000,99.400000000,3381790
2017-03-08T07:00:00Z,98.810000000,94.830000000,99.360000000,94.490000000,4829553
2017-03-09T07:00:00Z,93.770000000,95.700000000,96.020000000,93.060000000,4991367
2017-03-10T07:00:00Z,96.500000000,94.790000000,96.500000000,94.010000000,3796460
2017-03-13T07:00:00Z,94.490000000,94.950000000,95.350000000,93.515000000,4695357
2017-03-14T07:00:00Z,93.930000000,94.590000000,94.990000000,92.910000000,5091792
2017-03-15T07:00:00Z,95.540000000,97.060000000,97.388000000,94.680000000,4184439
2017-03-16T07:00:00Z,97.160000000,95.830000000,97.250000000,95.740000000,3182442
2017-03-17T07:00:00Z,96.540000000,96.430000000,96.970000000,95.650000000,6978641
2017-03-20T07:00:00Z,95.750000000,96.220000000,96.550000000,95.200000000,2208436
2017-03-21T07:00:00Z,96.490000000,94.530000000,96.592000000,94.260000000,2840747
2017-03-22T07:00:00Z,94.340000000,94.650000000,95.330000000,93.930000000,2040694
2017-03-23T07:00:00Z,94.480000000,94.810000000,95.440000000,93.915000000,2369615
2017-03-24T07:00:00Z,94.940000000,94.860000000,95.250000000,94.360000000,2858354
2017-03-27T07:00:00Z,93.350000000,93.380000000,93.990000000,93.030000000,2757071
2017-03-28T07:00:00Z,93.500000000,95.290000000,95.640000000,93.450000000,3341044
2017-03-29T07:00:00Z,95.180000000,97.000000000,97.560000000,94.570000000,3480896
2017-03-30T07:00:00Z,98.190000000,97.170000000,100.155000000,97.170000000,7514657
2017-03-31T07:00:00Z,97.180000000,97.550000000,98.500000000,96.660000000,4000964
2017-04-03T07:00:00Z,97.500000000,96.960000000,97.810000000,95.980000000,2281963
2017-04-04T07:00:00Z,97.370000000,98.250000000,98.310000000,96.010000000,2232138
2017-04-05T07:00:00Z,99.400000000,97.580000000,100.530000000,97.220000000,3829133
2017-04-06T07:00:00Z,97.970000000,98.050000000,98.810000000,97.559700000,1977903
2017-04-07T07:00:00Z,98.230000000,97.360000000,98.480000000,97.040000000,2866685
2017-04-10T07:00:00Z,98.170000000,98.570000000,99.430000000,98.055000000,2902612
2017-04-11T07:00:00Z,98.090000000,97.880000000,98.610000000,96.910000000,1907926
2017-04-12T07:00:00Z,97.820000000,97.490000000,98.880000000,97.180000000,2295069
2017-04-13T07:00:00Z,97.250000000,95.640000000,97.720000000,95.330000000,3235143
2017-04-17T07:00:00Z,95.660000000,95.740000000,96.130000000,95.200000000,2288772
2017-04-18T07:00:00Z,95.110000000,94.830000000,95.970000000,94.300000000,2005741
2017-04-19T07:00:00Z,94.930000000,93.290000000,95.420000000,92.925000000,3109057
2017-04-20T07:00:00Z,93.770000000,93.300000000,94.100000000,93.190000000,2737304
2017-04-21T07:00:00Z,93.000000000,93.580000000,94.250000000,92.885600000,2409298
2017-04-24T07:00:00Z,94.460000000,93.740000000,94.460000000,93.320000000,2182240
2017-04-25T07:00:00Z,93.800000000,95.270000000,95.430000000,93.472400000,2273945
2017-04-26T07:00:00Z,94.420000000,94.310000000,96.490000000,94.210000000,2131956
2017-04-27T07:00:00Z,93.570000000,93.000000000,93.700000000,91.160000000,3876283
2017-04-28T07:00:00Z,93.970000000,92.500000000,93.970000000,92.440000000,1625309
2017-05-01T07:00:00Z,92.530000000,92.030000000,92.710000000,91.750000000,2680096
2017-05-02T07:00:00Z,92.240000000,91.870000000,92.440000000,91.050000000,3351349
2017-05-03T07:00:00Z,91.530000000,91.760000000,92.750000000,91.090000000,3512229
2017-05-04T07:00:00Z,91.040000000,88.600000000,91.240000000,88.200000000,5457939
2017-05-05T07:00:00Z,89.030000000,90.880000000,91.060000000,88.870000000,4696413
2017-05-08T07:00:00Z,90.390000000,91.690000000,92.140000000,90.170000000,3718298
2017-05-09T07:00:00Z,92.360000000,91.640000000,92.440000000,90.600000000,3591133
2017-05-10T07:00:00Z,93.010000000,94.540000000,95.770000000,92.570000000,5239157
2017-05-11T07:00:00Z,94.820000000,94.280000000,94.922300000,93.980000000,2580772
2017-05-12T07:00:00Z,94.120000000,94.700000000,95.010000000,93.800000000,3415668
2017-05-15T07:00:00Z,96.320000000,94.730000000,96.650000000,94.120000000,6294017
2017-05-16T07:00:00Z,94.870000000,93.830000000,95.060000000,93.520000000,2682657
2017-05-17T07:00:00Z,93.280000000,92.950000000,94.300000000,92.830000000,2406905
2017-05-18T07:00:00Z,92.230000000,91.690000000,93.015000000,91.665000000,3795844
2017-05-19T07:00:00Z,92.380000000,93.810000000,94.390000000,92.070000000,3711885
2017-05-22T07:00:00Z,94.130000000,93.110000000,94.755000000,92.790000000,2004620
2017-05-23T07:00:00Z,93.120000000,92.530000000,93.300000000,91.970000000,2255369
2017-05-24T07:00:00Z,92.370000000,92.670000000,93.390000000,92.310000000,2898116
2017-05-25T07:00:00Z,92.280000000,91.020000000,93.620000000,90.440000000,2768745
2017-05-26T07:00:00Z,91.290000000,91.220000000,91.410000000,90.120000000,2001462
2017-05-30T07:00:00Z,90.470000000,89.620000000,90.790000000,89.430000000,3163050
2017-05-31T07:00:00Z,88.990000000,90.310000000,90.610000000,88.360000000,3938846
2017-06-01T07:00:00Z,90.640000000,90.400000000,91.380000000,89.730000000,2829569
2017-06-02T07:00:00Z,90.040000000,89.680000000,90.580000000,88.942800000,2680187
2017-06-05T07:00:00Z,89.120000000,89.200000000,89.630000000,88.520000000,2372985
2017-06-06T07:00:00Z,89.100000000,90.830000000,91.060000000,88.770000000,3219502
2017-06-07T07:00:00Z,90.220000000,88.150000000,90.940000000,87.410000000,4531393
2017-06-08T07:00:00Z,87.630000000,88.110000000,88.800000000,87.620000000,3498839
2017-06-09T07:00:00Z,88.330000000,90.080000000,90.810000000,88.040000000,4507916
2017-06-12T07:00:00Z,91.260000000,89.880000000,91.980000000,89.510000000,3812460
2017-06-13T07:00:00Z,90.050000000,90.560000000,90.700000000,89.510000000,2573078
2017-06-14T07:00:00Z,90.030000000,88.930000000,90.050000000,87.840000000,4055210
2017-06-15T07:00:00Z,88.860000000,87.040000000,89.150000000,86.570000000,4362030
2017-06-16T07:00:00Z,87.570000000,88.520000000,88.590000000,87.070000000,4767003
2017-06-19T07:00:00Z,88.370000000,88.070000000,89.010000000,87.960000000,2495363
2017-06-20T07:00:00Z,86.790000000,87.850000000,88.290000000,85.880000000,3772091
2017-06-21T07:00:00Z,88.100000000,87.120000000,89.165000000,86.635000000,4613500
2017-06-22T07:00:00Z,87.340000000,87.690000000,89.030000000,86.630000000,3356558
2017-06-23T07:00:00Z,87.610000000,87.790000000,88.230000000,87.210000000,3733870
2017-06-26T07:00:00Z,88.040000000,87.390000000,88.190000000,86.820000000,2548073
2017-06-27T07:00:00Z,88.190000000,88.000000000,88.830000000,87.680000000,3909206
2017-06-28T07:00:00Z,88.180000000,89.020000000,89.540000000,87.493300000,4508240
2017-06-29T07:00:00Z,89.470000000,90.000000000,90.910000000,89.300000000,4078999
2017-06-30T07:00:00Z,90.340000000,90.520000000,91.220000000,89.250000000,4164149
2017-07-03T07:00:00Z,91.000000000,92.370000000,93.160000000,90.520000000,2399997
2017-07-05T07:00:00Z,91.820000000,90.300000000,92.190000000,89.960000000,2720176
2017-07-06T07:00:00Z,90.530000000,88.630000000,90.840000000,88.405000000,3290586
2017-07-07T07:00:00Z,88.070000000,88.440000000,88.600000000,87.040000000,3810270
2017-07-10T07:00:00Z,88.130000000,89.620000000,89.780000000,88.000000000,2064842
2017-07-11T07:00:00Z,89.620000000,90.630000000,90.990000000,88.920000000,2516977
2017-07-12T07:00:00Z,91.460000000,90.570000000,92.300000000,90.410000000,3166655
2017-07-13T07:00:00Z,90.370000000,91.810000000,91.920000000,90.370000000,2472927
2017-07-14T07:00:00Z,91.980000000,91.870000000,92.360000000,91.590000000,1773422
2017-07-17T07:00:00Z,91.310000000,91.900000000,92.130000000,91.310000000,4129138
2017-07-18T07:00:00Z,92.250000000,91.700000000,92.450000000,91.250000000,2198601
2017-07-19T07:00:00Z,91.560000000,94.310000000,94.550000000,91.560000000,3937546
2017-07-20T07:00:00Z,95.000000000,93.660000000,95.740000000,93.570000000,4078175
2017-07-21T07:00:00Z,93.390000000,92.910000000,93.800000000,92.380000000,2665721
2017-07-24T07:00:00Z,93.020000000,93.310000000,94.680000000,92.900000000,2588939
2017-07-25T07:00:00Z,94.780000000,94.870000000,95.649000000,94.440000000,2811156
2017-07-26T07:00:00Z,95.660000000,94.750000000,96.100000000,94.650000000,2862098
2017-07-27T07:00:00Z,94.620000000,95.980000000,95.990000000,94.300000000,2615744
2017-07-28T07:00:00Z,96.010000000,95.420000000,96.900000000,95.030000000,2977076
2017-07-31T07:00:00Z,95.320000000,95.140000000,95.900000000,94.770000000,2996674
2017-08-01T07:00:00Z,94.910000000,94.460000000,95.580000000,94.050000000,3801955
2017-08-02T07:00:00Z,92.620000000,92.320000000,93.280000000,89.850000000,5358737
2017-08-03T07:00:00Z,92.390000000,88.900000000,92.500000000,87.760000000,6297439
2017-08-04T07:00:00Z,88.820000000,90.450000000,91.240000000,88.560000000,3792200
2017-08-07T07:00:00Z,89.890000000,89.670000000,90.230000000,88.850000000,3886628
2017-08-08T07:00:00Z,89.810000000,91.150000000,92.350000000,89.710000000,3829713
2017-08-09T07:00:00Z,91.520000000,90.350000000,92.350000000,90.270000000,3289080
2017-08-10T07:00:00Z,90.630000000,89.120000000,90.960000000,88.890000000,3377372
2017-08-11T07:00:00Z,89.150000000,88.530000000,89.550000000,87.935000000,2874157
2017-08-14T07:00:00Z,88.930000000,87.990000000,89.040000000,87.730000000,2482221
2017-08-15T07:00:00Z,87.750000000,87.020000000,87.910000000,86.250000000,4457936
2017-08-16T07:00:00Z,87.230000000,84.980000000,87.230000000,84.840000000,3478032
2017-08-17T07:00:00Z,84.780000000,83.380000000,85.030000000,83.370000000,3438130
2017-08-18T07:00:00Z,83.350000000,84.090000000,84.540000000,83.290000000,2751653
2017-08-21T07:00:00Z,83.810000000,83.690000000,84.320000000,83.410000000,2515486
2017-08-22T07:00:00Z,83.910000000,84.240000000,84.530000000,83.850000000,1946655
2017-08-23T07:00:00Z,84.160000000,85.110000000,85.720000000,83.960000000,2322742
2017-08-24T07:00:00Z,84.800000000,84.620000000,85.140000000,84.330000000,2007762
2017-08-25T07:00:00Z,85.010000000,84.510000000,85.220000000,84.460000000,2211256
2017-08-28T07:00:00Z,84.350000000,83.400000000,84.420000000,82.250000000,2377458
2017-08-29T07:00:00Z,82.620000000,83.150000000,83.240000000,81.990000000,2322118
2017-08-30T07:00:00Z,82.920000000,83.670000000,83.980000000,82.320000000,2245659
2017-08-31T07:00:00Z,84.000000000,84.990000000,85.180000000,83.610000000,4803859
2017-09-01T07:00:00Z,85.000000000,85.650000000,85.855000000,84.590000000,2358644
2017-09-05T07:00:00Z,85.920000000,85.870000000,86.680000000,85.260000000,2657753
2017-09-06T07:00:00Z,86.720000000,87.850000000,87.965000000,86.460000000,2600331
2017-09-07T07:00:00Z,87.750000000,88.600000000,88.740000000,87.401000000,2788606
2017-09-08T07:00:00Z,87.870000000,86.780000000,88.070000000,86.080000000,2687176
2017-09-11T07:00:00Z,87.110000000,87.930000000,87.990000000,86.480000000,2865342
2017-09-12T07:00:00Z,87.850000000,88.470000000,88.750000000,87.430000000,2922918
2017-09-13T07:00:00Z,89.320000000,91.100000000,91.110000000,89.070000000,3158258
2017-09-14T07:00:00Z,91.500000000,91.780000000,92.948600000,91.170000000,3428369
2017-09-15T07:00:00Z,92.430000000,93.220000000,93.290000000,91.860000000,4057790
2017-09-18T07:00:00Z,92.770000000,93.050000000,93.380000000,92.380000000,2388436
2017-09-19T07:00:00Z,93.080000000,93.130000000,93.640000000,92.710000000,2074609
2017-09-20T07:00:00Z,93.580000000,94.180000000,94.280000000,92.820000000,3774250
2017-09-21T07:00:00Z,93.660000000,93.890000000,94.440000000,93.140000000,2678660
2017-09-22T07:00:00Z,93.770000000,94.550000000,94.650000000,93.450000000,2290433
2017-09-25T07:00:00Z,95.000000000,96.290000000,96.800000000,94.740000000,3143428
2017-09-26T07:00:00Z,95.990000000,96.870000000,97.500000000,95.470000000,2951146
2017-09-27T07:00:00Z,96.900000000,97.320000000,97.510000000,96.280000000,2123021
2017-09-28T07:00:00Z,97.450000000,96.820000000,98.370000000,96.810000000,2983045
2017-09-29T07:00:00Z,96.730000000,96.740000000,97.450000000,96.050000000,2010864
2017-10-02T07:00:00Z,95.520000000,97.180000000,97.180000000,94.870000000,2115207
2017-10-03T07:00:00Z,96.980000000,96.500000000,97.710000000,96.480000000,2134464
2017-10-04T07:00:00Z,96.650000000,96.330000000,96.980000000,95.977500000,1507994
2017-10-05T07:00:00Z,96.500000000,96.550000000,97.070000000,96.150000000,2097643
2017-10-06T07:00:00Z,95.790000000,96.190000000,96.340000000,95.460000000,1587332
2017-10-09T07:00:00Z,96.530000000,96.500000000,97.020000000,96.110000000,1880931
2017-10-10T07:00:00Z,97.100000000,96.780000000,97.830000000,96.700000000,2201233
2017-10-11T07:00:00Z,96.770000000,96.930000000,97.120000000,96.040000000,2156493
2017-10-12T07:00:00Z,96.080000000,96.650000000,96.890000000,95.720000000,2173722
2017-10-13T07:00:00Z,97.500000000,96.620000000,97.625000000,96.300000000,1953638
2017-10-16T07:00:00Z,97.130000000,97.210000000,97.482500000,96.740000000,2075186
2017-10-17T07:00:00Z,97.250000000,97.450000000,97.770000000,96.560000000,1695319
2017-10-18T07:00:00Z,97.540000000,96.660000000,98.460000000,96.570000000,2040447
2017-10-19T07:00:00Z,95.690000000,95.760000000,96.690000000,95.360000000,1875107
2017-10-20T07:00:00Z,95.780000000,96.840000000,97.040000000,95.420000000,2194495
2017-10-23T07:00:00Z,97.070000000,96.970000000,97.490000000,96.670000000,2395754
2017-10-24T07:00:00Z,97.700000000,96.480000000,97.970000000,96.230000000,2190394
2017-10-25T07:00:00Z,96.320000000,96.150000000,96.870000000,95.670000000,1958994
2017-10-26T07:00:00Z,96.450000000,96.920000000,97.190000000,95.740000000,1980801
2017-10-27T07:00:00Z,96.210000000,98.470000000,98.560000000,95.840000000,2911191
2017-10-30T07:00:00Z,98.660000000,99.530000000,99.690000000,98.280000000,3505439
