2012-01-03T07:00:00Z,67.940000000,68.160000000,70.000000000,67.130000000,1005358
2012-01-04T07:00:00Z,67.670000000,68.190000000,68.500000000,66.960000000,1028160
2012-01-05T07:00:00Z,68.020000000,69.440000000,69.460000000,66.490000000,845339
2012-01-06T07:00:00Z,69.350000000,69.780000000,70.110000000,68.200000000,685075
2012-01-09T07:00:00Z,70.000000000,69.530000000,70.000000000,69.108000000,678756
2012-01-10T07:00:00Z,70.560000000,71.240000000,71.750000000,70.410000000,685111
2012-01-11T07:00:00Z,71.090000000,72.150000000,72.325000000,70.540000000,580906
2012-01-12T07:00:00Z,71.210000000,71.030000000,71.230000000,69.590000000,1004031
2012-01-13T07:00:00Z,70.250000000,70.560000000,70.710000000,69.360000000,571893
2012-01-17T07:00:00Z,71.300000000,71.530000000,72.000000000,71.080000000,788817
2012-01-18T07:00:00Z,71.520000000,71.370000000,71.970000000,71.070000000,968154
2012-01-19T07:00:00Z,71.780000000,72.500000000,72.920000000,71.670000000,638110
2012-01-20T07:00:00Z,72.730000000,74.270000000,74.340000000,72.000000000,1294945
2012-01-23T07:00:00Z,74.350000000,73.840000000,74.980000000,73.550000000,881710
2012-01-24T07:00:00Z,73.350000000,73.530000000,74.090000000,72.570000000,672842
2012-01-25T07:00:00Z,73.480000000,74.670000000,74.960000000,73.270000000,758554
2012-01-26T07:00:00Z,74.830000000,73.820000000,75.440000000,73.630000000,702529
2012-01-27T07:00:00Z,73.190000000,73.970000000,74.190000000,73.190000000,973999
2012-01-30T07:00:00Z,73.120000000,72.750000000,73.710000000,72.550000000,745415
2012-01-31T07:00:00Z,73.580000000,73.530000000,74.950000000,72.780000000,1572059
2012-02-01T07:00:00Z,74.380000000,74.560000000,74.840000000,73.785000000,921787
2012-02-02T07:00:00Z,74.930000000,75.860000000,75.960000000,74.780000000,1104901
2012-02-03T07:00:00Z,76.170000000,77.570000000,77.850000000,76.170000000,1435655
2012-02-06T07:00:00Z,77.340000000,77.220000000,77.530000000,76.800000000,591788
2012-02-07T07:00:00Z,76.530000000,76.580000000,76.900000000,76.120000000,744217
2012-02-08T07:00:00Z,76.420000000,75.830000000,77.340000000,75.450000000,623845
2012-02-09T07:00:00Z,76.010000000,75.550000000,76.270000000,74.950000000,594165
2012-02-10T07:00:00Z,74.580000000,74.830000000,75.650000000,74.561700000,541577
2012-02-13T07:00:00Z,75.930000000,75.610000000,76.249600000,75.010000000,436158
2012-02-14T07:00:00Z,75.330000000,74.630000000,75.710000000,74.170000000,597273
2012-02-15T07:00:00Z,75.080000000,75.520000000,76.000000000,74.780000000,761198
2012-02-16T07:00:00Z,75.510000000,75.920000000,76.460000000,75.350100000,1005296
2012-02-17T07:00:00Z,76.320000000,75.690000000,76.320000000,75.460000000,829519
2012-02-21T07:00:00Z,75.800000000,74.750000000,75.890000000,74.010000000,741187
2012-02-22T07:00:00Z,74.630000000,74.770000000,75.320000000,74.200000000,878558
2012-02-23T07:00:00Z,74.780000000,75.750000000,76.410000000,74.570000000,673439
2012-02-24T07:00:00Z,75.830000000,75.530000000,75.900000000,75.170000000,629480
2012-02-27T07:00:00Z,75.070000000,75.680000000,75.880000000,74.300000000,562386
2012-02-28T07:00:00Z,75.890000000,75.800000000,76.310000000,75.240000000,1004914
2012-02-29T07:00:00Z,76.040000000,76.050000000,76.460000000,75.400000000,1137969
2012-03-01T07:00:00Z,76.530000000,76.500000000,76.890000000,75.830000000,877763
2012-03-02T07:00:00Z,76.460000000,76.170000000,76.950000000,75.770000000,469544
2012-03-05T07:00:00Z,76.000000000,77.310000000,77.410000000,75.710000000,650730
2012-03-06T07:00:00Z,76.520000000,76.230000000,76.700000000,76.000000000,692116
2012-03-07T07:00:00Z,76.590000000,77.050000000,77.140000000,75.790000000,645904
2012-03-08T07:00:00Z,77.420000000,76.290000000,77.420000000,76.060000000,736291
2012-03-09T07:00:00Z,76.480000000,77.100000000,77.310000000,76.150000000,1025445
2012-03-12T07:00:00Z,77.180000000,77.100000000,77.580000000,76.920000000,440763
2012-03-13T07:00:00Z,77.400000000,79.270000000,79.300000000,77.400000000,679168
2012-03-14T07:00:00Z,79.080000000,78.890000000,79.560000000,78.300000000,420830
2012-03-15T07:00:00Z,78.850000000,78.910000000,79.510000000,78.200000000,685641
2012-03-16T07:00:00Z,78.770000000,78.570000000,79.010000000,78.290000000,1320305
2012-03-19T07:00:00Z,78.540000000,78.290000000,79.250000000,78.050000000,850170
2012-03-20T07:00:00Z,77.840000000,78.620000000,78.979600000,77.572000000,576676
2012-03-21T07:00:00Z,78.500000000,77.420000000,78.870000000,77.420000000,849732
2012-03-22T07:00:00Z,76.870000000,76.500000000,76.870000000,75.530000000,826418
2012-03-23T07:00:00Z,76.270000000,76.640000000,77.130000000,75.420000000,711228
2012-03-26T07:00:00Z,77.640000000,77.630000000,77.850000000,76.950200000,677550
2012-03-27T07:00:00Z,77.320000000,77.020000000,77.750000000,76.580000000,1035787
2012-03-28T07:00:00Z,76.890000000,77.480000000,77.630000000,76.030000000,1000929
2012-03-29T07:00:00Z,76.760000000,76.950000000,77.090000000,75.750000000,1097871
2012-03-30T07:00:00Z,77.560000000,77.550000000,78.110000000,76.980000000,1381358
2012-04-02T07:00:00Z,76.480000000,77.690000000,78.090000000,76.180000000,1133191
2012-04-03T07:00:00Z,77.460000000,77.190000000,77.910000000,76.855000000,591988
2012-04-04T07:00:00Z,76.510000000,75.350000000,76.790000000,75.290000000,797191
2012-04-05T07:00:00Z,75.210000000,74.270000000,75.360000000,73.790000000,946418
2012-04-09T07:00:00Z,72.940000000,73.430000000,73.690000000,72.850000000,628404
2012-04-10T07:00:00Z,74.230000000,71.830000000,74.230000000,71.480000000,810604
2012-04-11T07:00:00Z,72.560000000,72.880000000,73.000000000,72.280000000,503806
2012-04-12T07:00:00Z,73.160000000,74.350000000,74.350000000,72.840000000,523601
2012-04-13T07:00:00Z,74.000000000,73.060000000,74.250000000,72.950000000,668155
2012-04-16T07:00:00Z,73.420000000,73.960000000,74.440000000,73.260000000,967323
2012-04-17T07:00:00Z,74.600000000,75.490000000,75.660000000,74.145000000,779260
2012-04-18T07:00:00Z,75.060000000,75.660000000,75.810000000,74.840000000,617467
2012-04-19T07:00:00Z,75.750000000,75.560000000,76.320000000,74.940000000,587358
2012-04-20T07:00:00Z,75.850000000,76.290000000,76.990000000,75.700000000,446615
2012-04-23T07:00:00Z,73.230000000,75.630000000,75.810000000,73.230000000,1044587
2012-04-24T07:00:00Z,75.580000000,77.120000000,77.230000000,75.510000000,872531
2012-04-25T07:00:00Z,78.480000000,78.610000000,79.650000000,77.590000000,992552
2012-04-26T07:00:00Z,79.500000000,81.710000000,82.400000000,79.220000000,1280833
2012-04-27T07:00:00Z,81.810000000,82.170000000,82.600000000,81.000100000,1102929
2012-04-30T07:00:00Z,82.240000000,82.440000000,82.840000000,81.460000000,1116743
2012-05-01T07:00:00Z,82.640000000,83.310000000,84.000000000,82.110000000,927166
2012-05-02T07:00:00Z,82.530000000,82.650000000,83.531000000,81.710000000,815277
2012-05-03T07:00:00Z,83.010000000,81.930000000,83.240000000,81.910000000,735634
2012-05-04T07:00:00Z,81.660000000,80.580000000,81.830000000,80.190000000,1065069
2012-05-07T07:00:00Z,80.130000000,81.040000000,81.170000000,80.020000000,1091992
2012-05-08T07:00:00Z,80.600000000,81.380000000,81.680000000,80.220000000,984965
2012-05-09T07:00:00Z,80.350000000,81.020000000,81.690000000,80.230000000,526584
2012-05-10T07:00:00Z,81.610000000,81.180000000,81.870000000,80.390000000,721584
2012-05-11T07:00:00Z,80.520000000,80.740000000,81.430000000,80.190000000,719897
2012-05-14T07:00:00Z,79.950000000,79.290000000,80.300000000,79.220000000,848350
2012-05-15T07:00:00Z,79.100000000,78.410000000,79.320000000,77.980000000,930763
2012-05-16T07:00:00Z,78.540000000,77.800000000,79.590000000,77.800000000,1079745
2012-05-17T07:00:00Z,77.940000000,74.580000000,78.130000000,74.260000000,1366998
2012-05-18T07:00:00Z,74.750000000,72.470000000,74.890000000,72.200000000,1386150
2012-05-21T07:00:00Z,72.750000000,74.940000000,75.340000000,72.450000000,1080614
2012-05-22T07:00:00Z,74.950000000,75.090000000,75.710000000,74.620000000,1076851
2012-05-23T07:00:00Z,74.390000000,75.110000000,75.110000000,73.770000000,915420
2012-05-24T07:00:00Z,74.680000000,75.120000000,75.780000000,73.910000000,738251
2012-05-25T07:00:00Z,75.350000000,74.510000000,75.350000000,74.300000000,828191
2012-05-29T07:00:00Z,75.290000000,76.080000000,76.260000000,74.970000000,1618277
2012-05-30T07:00:00Z,75.090000000,73.900000000,75.230000000,73.650000000,1485702
2012-05-31T07:00:00Z,73.870000000,75.010000000,75.720000000,73.180000000,4274720
2012-06-01T07:00:00Z,74.080000000,72.300000000,74.580000000,72.170000000,1297069
2012-06-04T07:00:00Z,72.090000000,70.910000000,72.650000000,70.340000000,1271432
2012-06-05T07:00:00Z,70.920000000,72.560000000,72.730000000,70.640000000,1036577
2012-06-06T07:00:00Z,73.550000000,74.990000000,75.010000000,73.070000000,691983
2012-06-07T07:00:00Z,75.850000000,74.200000000,76.050000000,74.030000000,770378
2012-06-08T07:00:00Z,74.220000000,75.620000000,75.620000000,73.880000000,530420
2012-06-11T07:00:00Z,76.250000000,72.800000000,76.370000000,72.690000000,684693
2012-06-12T07:00:00Z,73.400000000,73.970000000,74.120000000,72.741000000,778640
2012-06-13T07:00:00Z,73.880000000,72.950000000,74.170000000,72.470000000,710318
2012-06-14T07:00:00Z,72.980000000,73.880000000,74.230000000,72.820000000,837537
2012-06-15T07:00:00Z,73.980000000,74.490000000,74.500000000,73.450000000,1358477
2012-06-18T07:00:00Z,74.040000000,75.750000000,75.940000000,73.850000000,560303
2012-06-19T07:00:00Z,75.930000000,76.630000000,77.220000000,75.610000000,710738
2012-06-20T07:00:00Z,76.370000000,76.310000000,77.810000000,76.070000000,542401
2012-06-21T07:00:00Z,76.520000000,74.850000000,76.630000000,74.530000000,571958
2012-06-22T07:00:00Z,75.340000000,75.140000000,75.630000000,74.350000000,503490
2012-06-25T07:00:00Z,74.280000000,73.940000000,74.710000000,73.300000000,562924
2012-06-26T07:00:00Z,74.100000000,75.720000000,76.290000000,74.088000000,603752
2012-06-27T07:00:00Z,75.830000000,76.000000000,76.480000000,75.350000000,453431
2012-06-28T07:00:00Z,75.460000000,77.250000000,77.250000000,74.840000000,583145
2012-06-29T07:00:00Z,79.040000000,80.240000000,80.300000000,78.340000000,882455
2012-07-02T07:00:00Z,82.600000000,80.690000000,82.600000000,76.280000000,508069
2012-07-03T07:00:00Z,80.880000000,81.990000000,82.100000000,80.420000000,277191
2012-07-05T07:00:00Z,81.720000000,81.500000000,82.000000000,80.942000000,370069
2012-07-06T07:00:00Z,80.630000000,81.540000000,81.690000000,80.510000000,388965
2012-07-09T07:00:00Z,81.800000000,81.350000000,81.800000000,80.860000000,550287
2012-07-10T07:00:00Z,81.940000000,79.200000000,81.940000000,78.790000000,520870
2012-07-11T07:00:00Z,79.160000000,78.450000000,79.660000000,78.000000000,722239
2012-07-12T07:00:00Z,78.000000000,78.550000000,79.190000000,77.020000000,723517
2012-07-13T07:00:00Z,78.700000000,79.700000000,79.790000000,78.230000000,356376
2012-07-16T07:00:00Z,79.660000000,79.360000000,79.870000000,78.960000000,346036
2012-07-17T07:00:00Z,79.900000000,80.180000000,80.380000000,78.570000000,579873
2012-07-18T07:00:00Z,80.080000000,79.520000000,80.190000000,79.070000000,522790
2012-07-19T07:00:00Z,80.050000000,78.220000000,80.050000000,77.845000000,710887
2012-07-20T07:00:00Z,77.570000000,78.370000000,78.720000000,77.405000000,475230
2012-07-23T07:00:00Z,76.860000000,77.000000000,77.230000000,76.340000000,554277
2012-07-24T07:00:00Z,77.370000000,76.370000000,77.719900000,75.830000000,482297
2012-07-25T07:00:00Z,76.700000000,76.450000000,77.920000000,75.750000000,584560
2012-07-26T07:00:00Z,78.060000000,77.570000000,78.820000000,76.030000000,1195486
2012-07-27T07:00:00Z,77.790000000,77.880000000,79.740000000,77.100000000,676853
2012-07-30T07:00:00Z,77.940000000,79.180000000,79.260000000,77.850000000,669259
2012-07-31T07:00:00Z,78.940000000,78.750000000,79.340000000,78.310000000,819279
2012-08-01T07:00:00Z,78.960000000,80.200000000,80.540000000,78.960000000,903810
2012-08-02T07:00:00Z,79.750000000,80.440000000,80.600000000,79.200000000,701047
2012-08-03T07:00:00Z,81.390000000,81.750000000,82.180000000,80.940000000,771896
2012-08-06T07:00:00Z,82.000000000,81.880000000,82.080000000,81.380000000,567080
2012-08-07T07:00:00Z,82.090000000,80.800000000,82.320000000,80.570000000,713461
2012-08-08T07:00:00Z,80.640000000,80.400000000,80.990000000,80.010000000,507797
2012-08-09T07:00:00Z,80.470000000,80.880000000,81.540000000,80.400000000,900455
2012-08-10T07:00:00Z,80.880000000,80.780000000,81.230000000,80.000000000,436829
2012-08-13T07:00:00Z,80.500000000,80.780000000,81.250000000,80.350000000,402959
2012-08-14T07:00:00Z,80.970000000,80.430000000,81.080000000,80.240000000,421445
2012-08-15T07:00:00Z,80.490000000,80.940000000,81.040000000,80.170000000,251436
2012-08-16T07:00:00Z,81.070000000,81.110000000,81.179900000,80.170000000,482098
2012-08-17T07:00:00Z,81.020000000,81.100000000,81.350000000,80.740000000,409970
2012-08-20T07:00:00Z,81.050000000,80.810000000,81.270000000,80.360000000,439179
2012-08-21T07:00:00Z,80.950000000,80.680000000,81.296000000,80.495000000,496169
2012-08-22T07:00:00Z,80.580000000,80.990000000,81.040000000,79.790000000,399550
2012-08-23T07:00:00Z,80.850000000,80.830000000,81.320000000,80.425000000,467637
2012-08-24T07:00:00Z,80.840000000,80.940000000,81.210000000,80.530000000,277674
2012-08-27T07:00:00Z,81.280000000,80.460000000,81.660000000,80.090000000,360112
2012-08-28T07:00:00Z,80.550000000,81.220000000,81.245000000,79.820000000,740103
2012-08-29T07:00:00Z,80.960000000,81.000000000,81.210000000,80.590000000,332225
2012-08-30T07:00:00Z,80.360000000,79.920000000,80.770000000,79.750000000,351336
2012-08-31T07:00:00Z,80.490000000,80.600000000,80.680000000,79.380000000,936856
2012-09-04T07:00:00Z,80.780000000,81.920000000,81.990000000,79.680000000,595115
2012-09-05T07:00:00Z,81.860000000,81.280000000,81.990000000,80.930000000,531821
2012-09-06T07:00:00Z,81.950000000,81.990000000,82.490000000,81.660000000,935706
2012-09-07T07:00:00Z,81.730000000,82.390000000,82.850000000,81.730000000,527673
2012-09-10T07:00:00Z,81.900000000,81.790000000,82.380000000,81.170100000,604171
2012-09-11T07:00:00Z,81.680000000,81.690000000,82.060000000,80.720000000,503482
2012-09-12T07:00:00Z,82.000000000,82.270000000,82.640000000,81.510000000,380364
2012-09-13T07:00:00Z,82.290000000,83.600000000,83.950000000,82.130000000,328440
2012-09-14T07:00:00Z,84.050000000,85.140000000,85.570000000,84.010000000,539276
2012-09-17T07:00:00Z,84.920000000,83.910000000,85.740000000,83.890000000,549732
2012-09-18T07:00:00Z,83.640000000,82.580000000,83.910000000,82.480000000,607572
2012-09-19T07:00:00Z,82.570000000,82.010000000,82.750000000,81.560000000,471156
2012-09-20T07:00:00Z,81.600000000,81.050000000,81.610000000,80.240000000,814589
2012-09-21T07:00:00Z,81.530000000,81.540000000,81.930000000,80.890000000,1048319
2012-09-24T07:00:00Z,80.860000000,81.160000000,82.170000000,80.770000000,775755
2012-09-25T07:00:00Z,81.130000000,80.340000000,81.720000000,80.230000000,863440
2012-09-26T07:00:00Z,80.470000000,79.290000000,80.790000000,79.240000000,794985
2012-09-27T07:00:00Z,79.730000000,80.460000000,81.220000000,79.390000000,682606
2012-09-28T07:00:00Z,79.970000000,80.070000000,80.340000000,79.280000000,796321
2012-10-01T07:00:00Z,80.370000000,78.860000000,80.370000000,77.940000000,836983
2012-10-02T07:00:00Z,79.450000000,79.630000000,79.790000000,78.582000000,427470
2012-10-03T07:00:00Z,79.690000000,79.140000000,80.210000000,79.040000000,801793
2012-10-04T07:00:00Z,79.670000000,78.520000000,79.690000000,78.060000000,876441
2012-10-05T07:00:00Z,78.640000000,78.480000000,78.740000000,78.000000000,824876
2012-10-08T07:00:00Z,78.090000000,78.130000000,78.320000000,77.590000000,400934
2012-10-09T07:00:00Z,78.240000000,77.780000000,78.940000000,77.750000000,421133
2012-10-10T07:00:00Z,78.020000000,78.100000000,78.310000000,77.230000000,312089
2012-10-11T07:00:00Z,78.750000000,79.060000000,79.330000000,78.480000000,627091
2012-10-12T07:00:00Z,79.010000000,78.170000000,79.260000000,78.050000000,555580
2012-10-15T07:00:00Z,78.170000000,78.920000000,79.280000000,77.670000000,347167
2012-10-16T07:00:00Z,78.980000000,78.600000000,79.530000000,78.170000000,370263
2012-10-17T07:00:00Z,78.360000000,78.460000000,78.900000000,77.150000000,916471
2012-10-18T07:00:00Z,78.640000000,79.610000000,79.840000000,78.470000000,353624
2012-10-19T07:00:00Z,79.390000000,78.550000000,79.890000000,78.370000000,485194
2012-10-22T07:00:00Z,77.130000000,78.240000000,78.370000000,77.130000000,480886
2012-10-23T07:00:00Z,77.210000000,77.790000000,77.990000000,76.620000000,564447
2012-10-24T07:00:00Z,77.950000000,77.500000000,78.170000000,77.180000000,427354
2012-10-25T07:00:00Z,78.920000000,76.010000000,78.920000000,74.940000000,946391
2012-10-26T07:00:00Z,75.870000000,75.400000000,76.010000000,74.580000000,526660
2012-10-31T07:00:00Z,75.500000000,75.300000000,76.390000000,74.330000000,811968
2012-11-01T07:00:00Z,75.380000000,76.110000000,76.830000000,74.650000000,661196
2012-11-02T07:00:00Z,76.590000000,77.460000000,78.000000000,76.480000000,888313
2012-11-05T07:00:00Z,77.260000000,76.440000000,77.804000000,76.080000000,545718
2012-11-06T07:00:00Z,76.790000000,76.910000000,77.050000000,76.220000000,566630
2012-11-07T07:00:00Z,76.230000000,75.710000000,76.610000000,75.010000000,769973
2012-11-08T07:00:00Z,75.120000000,74.040000000,75.264000000,74.000000000,704080
2012-11-09T07:00:00Z,73.870000000,73.370000000,74.140000000,73.150000000,718304
2012-11-12T07:00:00Z,74.080000000,74.430000000,74.760000000,73.450000000,1017602
2012-11-13T07:00:00Z,74.010000000,74.310000000,74.529500000,73.210000000,1729217
2012-11-14T07:00:00Z,74.600000000,71.480000000,74.600000000,71.180000000,1142021
2012-11-15T07:00:00Z,71.470000000,71.530000000,72.360000000,70.730000000,656692
2012-11-16T07:00:00Z,71.750000000,71.370000000,72.190000000,70.840000000,679867
2012-11-19T07:00:00Z,72.350000000,72.830000000,73.170000000,71.804900000,766599
2012-11-20T07:00:00Z,72.480000000,73.240000000,73.250000000,71.990000000,758340
2012-11-21T07:00:00Z,73.330000000,73.220000000,74.000000000,72.630000000,776389
2012-11-23T07:00:00Z,73.640000000,73.910000000,74.360000000,73.230000000,193075
2012-11-26T07:00:00Z,73.500000000,74.340000000,75.270000000,73.500000000,758543
2012-11-27T07:00:00Z,73.710000000,74.190000000,74.460000000,72.800000000,723255
2012-11-28T07:00:00Z,73.590000000,74.680000000,74.905000000,73.315000000,520655
2012-11-29T07:00:00Z,74.820000000,74.380000000,75.330000000,74.110000000,1010041
2012-11-30T07:00:00Z,74.240000000,75.380000000,75.510000000,74.220000000,965078
2012-12-03T07:00:00Z,75.880000000,75.950000000,76.060000000,75.192800000,692758
2012-12-04T07:00:00Z,75.940000000,75.690000000,76.360000000,75.480000000,858592
2012-12-05T07:00:00Z,75.750000000,75.090000000,75.967600000,74.860000000,874982
2012-12-06T07:00:00Z,75.120000000,75.730000000,75.850000000,75.064000000,627876
2012-12-07T07:00:00Z,76.110000000,76.240000000,76.390000000,75.270000000,812251
2012-12-10T07:00:00Z,76.350000000,75.990000000,76.590000000,75.520000000,677765
2012-12-11T07:00:00Z,76.210000000,76.230000000,76.460000000,75.960000000,466810
2012-12-12T07:00:00Z,76.320000000,75.870000000,76.438500000,75.530000000,686287
2012-12-13T07:00:00Z,75.800000000,75.560000000,76.250000000,75.390000000,687733
2012-12-14T07:00:00Z,75.490000000,76.070000000,76.240000000,75.460000000,502968
2012-12-17T07:00:00Z,76.130000000,76.420000000,76.430000000,75.670000000,677870
2012-12-18T07:00:00Z,76.640000000,77.220000000,77.250000000,76.380000000,494397
2012-12-19T07:00:00Z,76.880000000,76.770000000,77.300000000,76.670000000,499941
2012-12-20T07:00:00Z,76.610000000,77.660000000,77.680000000,76.600000000,716723
2012-12-21T07:00:00Z,76.390000000,76.610000000,77.240000000,76.290000000,1511283
2012-12-24T07:00:00Z,76.630000000,76.990000000,77.280000000,75.960000000,196508
2012-12-26T07:00:00Z,77.050000000,76.150000000,77.050000000,75.650000000,572395
2012-12-27T07:00:00Z,76.280000000,76.440000000,76.640000000,75.454400000,377998
2012-12-28T07:00:00Z,75.790000000,75.630000000,76.440000000,75.030000000,322267
2012-12-31T07:00:00Z,75.500000000,76.650000000,76.730000000,75.250000000,561981
2012-12-31T07:00:00Z,75.500000000,76.650000000,76.730000000,75.250000000,561981
2013-01-02T07:00:00Z,78.200000000,78.430000000,78.586000000,77.330000000,768060
2013-01-03T07:00:00Z,78.320000000,78.160000000,79.136000000,77.960000000,502602
2013-01-04T07:00:00Z,78.220000000,78.480000000,78.795000000,78.010000000,349780
2013-01-07T07:00:00Z,78.150000000,78.980000000,79.080000000,78.030000000,438849
2013-01-08T07:00:00Z,79.090000000,78.620000000,79.230000000,78.340000000,641074
2013-01-09T07:00:00Z,78.800000000,78.950000000,79.300000000,78.800000000,745171
2013-01-10T07:00:00Z,79.120000000,79.060000000,79.460000000,78.570000000,790855
2013-01-11T07:00:00Z,79.040000000,79.120000000,79.270000000,78.810000000,407519
2013-01-14T07:00:00Z,79.030000000,78.820000000,79.155000000,78.560000000,766773
2013-01-15T07:00:00Z,77.680000000,79.340000000,79.480000000,77.680000000,447124
2013-01-16T07:00:00Z,78.790000000,79.330000000,79.390000000,78.660000000,324197
2013-01-17T07:00:00Z,79.470000000,79.320000000,79.700000000,79.240000000,429577
2013-01-18T07:00:00Z,79.440000000,80.230000000,80.280000000,79.180000000,620308
2013-01-22T07:00:00Z,80.060000000,80.640000000,81.370000000,78.780000000,890073
2013-01-23T07:00:00Z,80.430000000,80.340000000,80.730000000,80.240000000,361880
2013-01-24T07:00:00Z,80.210000000,80.750000000,80.840000000,79.940000000,731103
2013-01-25T07:00:00Z,80.830000000,81.440000000,81.460000000,80.310000000,413317
2013-01-28T07:00:00Z,81.790000000,81.520000000,81.790000000,80.550000000,535520
2013-01-29T07:00:00Z,81.370000000,81.820000000,81.850000000,81.120100000,490700
2013-01-30T07:00:00Z,82.030000000,80.320000000,82.030000000,79.990000000,821989
2013-01-31T07:00:00Z,80.000000000,80.380000000,81.180000000,78.890000000,831380
2013-02-01T07:00:00Z,80.900000000,80.740000000,81.320000000,80.230000000,786480
2013-02-04T07:00:00Z,80.430000000,80.760000000,80.930000000,80.240000000,626335
2013-02-05T07:00:00Z,80.970000000,81.130000000,81.540000000,80.160000000,772271
2013-02-06T07:00:00Z,80.690000000,81.060000000,81.380000000,80.580000000,882810
2013-02-07T07:00:00Z,81.190000000,81.020000000,81.360000000,80.490000000,517000
2013-02-08T07:00:00Z,81.220000000,81.890000000,81.930000000,80.940000000,296853
2013-02-11T07:00:00Z,81.870000000,81.790000000,82.280000000,81.360000000,644276
2013-02-12T07:00:00Z,81.790000000,82.790000000,82.940000000,81.730000000,706241
2013-02-13T07:00:00Z,82.800000000,82.760000000,82.960000000,82.450000000,521369
2013-02-14T07:00:00Z,82.520000000,82.150000000,82.690000000,81.940000000,369719
2013-02-15T07:00:00Z,82.090000000,82.700000000,82.700000000,81.700000000,475706
2013-02-19T07:00:00Z,83.210000000,83.490000000,83.500000000,82.990000000,624148
2013-02-20T07:00:00Z,83.270000000,82.160000000,83.760000000,82.100000000,636968
2013-02-21T07:00:00Z,82.240000000,81.090000000,82.810000000,80.980000000,518454
2013-02-22T07:00:00Z,81.620000000,81.640000000,82.020000000,81.320000000,382277
2013-02-25T07:00:00Z,81.810000000,80.130000000,82.035000000,80.120000000,535236
2013-02-26T07:00:00Z,80.550000000,80.670000000,81.110000000,79.900000000,597409
2013-02-27T07:00:00Z,80.670000000,81.310000000,81.550000000,80.320000000,687493
2013-02-28T07:00:00Z,81.470000000,81.620000000,82.070000000,81.070000000,1146270
2013-03-01T07:00:00Z,81.340000000,82.670000000,82.670000000,81.080100000,938999
2013-03-04T07:00:00Z,82.500000000,82.770000000,83.000000000,82.230000000,690445
2013-03-05T07:00:00Z,83.040000000,82.930000000,83.310000000,82.508000000,696349
2013-03-06T07:00:00Z,83.000000000,83.870000000,83.990000000,82.480000000,591451
2013-03-07T07:00:00Z,83.740000000,84.000000000,84.280000000,83.420000000,678872
2013-03-08T07:00:00Z,84.130000000,84.450000000,84.810000000,83.580000000,586835
2013-03-11T07:00:00Z,84.430000000,85.250000000,85.500000000,84.310000000,623270
2013-03-12T07:00:00Z,85.360000000,85.430000000,85.580000000,84.670000000,446872
2013-03-13T07:00:00Z,85.380000000,85.760000000,86.060000000,84.960000000,433575
2013-03-14T07:00:00Z,85.670000000,86.180000000,87.500000000,85.670000000,644120
2013-03-15T07:00:00Z,86.220000000,85.740000000,86.330000000,85.550000000,1500468
2013-03-18T07:00:00Z,85.310000000,85.600000000,85.890000000,84.985000000,886307
2013-03-19T07:00:00Z,85.700000000,84.950000000,85.900000000,84.870000000,847090
2013-03-20T07:00:00Z,85.320000000,85.990000000,86.040000000,84.710000000,474587
2013-03-21T07:00:00Z,85.600000000,85.460000000,86.270000000,85.212000000,665667
2013-03-22T07:00:00Z,85.860000000,86.070000000,86.070000000,85.464000000,414325
2013-03-25T07:00:00Z,86.150000000,86.160000000,86.900000000,86.030000000,466528
2013-03-26T07:00:00Z,86.160000000,86.290000000,86.870000000,86.100000000,460297
2013-03-27T07:00:00Z,85.170000000,86.170000000,86.270000000,85.170000000,274531
2013-03-28T07:00:00Z,86.140000000,86.110000000,86.370000000,85.500000000,886932
2013-04-01T07:00:00Z,86.050000000,86.350000000,86.660000000,85.730000000,442059
2013-04-02T07:00:00Z,86.380000000,87.060000000,87.220000000,86.380000000,446209
2013-04-03T07:00:00Z,87.540000000,86.540000000,87.760000000,86.210000000,584513
2013-04-04T07:00:00Z,86.600000000,88.150000000,88.370000000,86.400000000,795799
2013-04-05T07:00:00Z,87.160000000,88.440000000,88.500000000,86.590000000,794144
2013-04-08T07:00:00Z,88.450000000,88.730000000,88.960000000,87.620000000,754751
2013-04-09T07:00:00Z,88.940000000,88.190000000,88.940000000,87.830000000,599322
2013-04-10T07:00:00Z,88.400000000,88.350000000,88.810000000,88.060000000,731428
2013-04-11T07:00:00Z,88.540000000,88.490000000,89.160000000,88.200000000,669477
2013-04-12T07:00:00Z,88.240000000,88.310000000,88.980000000,87.960000000,473634
2013-04-15T07:00:00Z,88.100000000,85.940000000,88.480000000,85.890000000,728014
2013-04-16T07:00:00Z,86.560000000,87.700000000,87.950000000,86.110000000,652688
2013-04-17T07:00:00Z,87.150000000,86.580000000,87.150000000,85.780000000,700931
2013-04-18T07:00:00Z,86.530000000,85.990000000,86.590000000,85.800000000,734176
2013-04-19T07:00:00Z,86.050000000,87.700000000,89.180000000,86.020000000,1208914
2013-04-22T07:00:00Z,87.880000000,86.840000000,87.880000000,86.280000000,781548
2013-04-23T07:00:00Z,87.370000000,88.100000000,88.320000000,87.060000000,670366
2013-04-24T07:00:00Z,88.250000000,88.720000000,88.740000000,87.240000000,880658
2013-04-25T07:00:00Z,89.620000000,88.650000000,89.620000000,87.620000000,617004
2013-04-26T07:00:00Z,88.500000000,88.380000000,89.180000000,88.080000000,481770
2013-04-29T07:00:00Z,88.490000000,88.700000000,88.980000000,88.315000000,465173
2013-04-30T07:00:00Z,88.770000000,90.700000000,90.700000000,88.470000000,878617
2013-05-01T07:00:00Z,90.020000000,88.610000000,90.500000000,88.520000000,597018
2013-05-02T07:00:00Z,88.930000000,88.920000000,89.650000000,88.710000000,439345
2013-05-03T07:00:00Z,89.100000000,89.770000000,89.940000000,89.100000000,377193
2013-05-06T07:00:00Z,89.790000000,90.960000000,91.120000000,89.790000000,417870
2013-05-07T07:00:00Z,90.840000000,90.830000000,91.250000000,90.270000000,419502
2013-05-08T07:00:00Z,90.580000000,90.920000000,91.310000000,90.330000000,841902
2013-05-09T07:00:00Z,91.160000000,90.030000000,91.400000000,89.710000000,474529
2013-05-10T07:00:00Z,90.200000000,90.330000000,90.420000000,89.430000000,456560
2013-05-13T07:00:00Z,90.190000000,90.810000000,91.080000000,89.873000000,357933
2013-05-14T07:00:00Z,91.080000000,90.880000000,91.450000000,90.600000000,421530
2013-05-15T07:00:00Z,90.730000000,91.340000000,91.467500000,90.200000000,402307
2013-05-16T07:00:00Z,91.110000000,91.120000000,91.720000000,90.710000000,522396
2013-05-17T07:00:00Z,91.550000000,92.130000000,92.140000000,91.250000000,351265
2013-05-20T07:00:00Z,92.100000000,93.240000000,93.380000000,92.095000000,664243
2013-05-21T07:00:00Z,93.220000000,94.210000000,95.390000000,93.180000000,845468
2013-05-22T07:00:00Z,94.230000000,92.070000000,94.990000000,91.472500000,537270
2013-05-23T07:00:00Z,90.880000000,91.180000000,91.580000000,89.140000000,821165
2013-05-24T07:00:00Z,90.750000000,90.970000000,91.290000000,89.870000000,379446
2013-05-28T07:00:00Z,91.920000000,90.430000000,92.250000000,89.570000000,447424
2013-05-29T07:00:00Z,89.330000000,89.620000000,89.730000000,87.740000000,968556
2013-05-30T07:00:00Z,89.530000000,88.220000000,90.195000000,88.100000000,610576
2013-05-31T07:00:00Z,87.920000000,86.980000000,88.540000000,86.980000000,811457
2013-06-03T07:00:00Z,87.190000000,86.720000000,87.750000000,86.010000000,752165
2013-06-04T07:00:00Z,86.740000000,86.130000000,87.252000000,85.920000000,665373
2013-06-05T07:00:00Z,86.310000000,85.550000000,86.550000000,84.962000000,636610
2013-06-06T07:00:00Z,85.460000000,87.100000000,87.150000000,85.180000000,485384
2013-06-07T07:00:00Z,87.790000000,86.910000000,88.010000000,85.570000000,444105
2013-06-10T07:00:00Z,87.280000000,87.880000000,87.880000000,86.180000000,647025
2013-06-11T07:00:00Z,87.080000000,86.670000000,87.620000000,85.540000000,1003442
2013-06-12T07:00:00Z,87.010000000,87.010000000,87.165000000,86.260000000,1568426
2013-06-13T07:00:00Z,87.590000000,89.670000000,89.960000000,87.080000000,1012999
2013-06-14T07:00:00Z,89.620000000,91.360000000,91.990000000,89.400000000,1109577
2013-06-17T07:00:00Z,91.710000000,91.570000000,92.770000000,90.910000000,1265110
2013-06-18T07:00:00Z,91.520000000,91.720000000,92.190000000,91.210000000,828519
2013-06-19T07:00:00Z,91.610000000,89.060000000,91.810000000,88.692500000,1316601
2013-06-20T07:00:00Z,88.000000000,84.360000000,88.070000000,83.680000000,1155034
2013-06-21T07:00:00Z,85.160000000,85.190000000,86.440000000,84.060000000,1361377
2013-06-24T07:00:00Z,84.420000000,84.840000000,86.790000000,83.000000000,1078323
2013-06-25T07:00:00Z,85.780000000,85.640000000,86.300000000,84.790000000,1036364
2013-06-26T07:00:00Z,86.640000000,86.640000000,87.670000000,86.600000000,925023
2013-06-27T07:00:00Z,87.020000000,88.760000000,88.930000000,86.960000000,845884
2013-06-28T07:00:00Z,88.450000000,88.190000000,88.910000000,87.380000000,670344
2013-07-01T07:00:00Z,88.530000000,87.870000000,88.850000000,87.600000000,611793
2013-07-02T07:00:00Z,87.920000000,89.510000000,89.580000000,87.230000000,1242906
2013-07-03T07:00:00Z,88.870000000,90.270000000,90.780000000,88.340000000,582959
2013-07-05T07:00:00Z,90.440000000,90.490000000,90.980000000,88.470000000,1005838
2013-07-08T07:00:00Z,90.460000000,90.810000000,91.470000000,90.400000000,1067097
2013-07-09T07:00:00Z,90.910000000,91.500000000,92.020000000,90.780000000,763094
2013-07-10T07:00:00Z,91.500000000,91.090000000,91.580000000,90.705000000,849954
2013-07-11T07:00:00Z,92.140000000,93.590000000,93.690000000,92.060000000,1062045
2013-07-12T07:00:00Z,93.590000000,93.660000000,93.770000000,92.750000000,510594
2013-07-15T07:00:00Z,93.210000000,93.750000000,94.000000000,92.180000000,880216
2013-07-16T07:00:00Z,93.680000000,93.120000000,93.750000000,92.980000000,690016
2013-07-17T07:00:00Z,93.710000000,93.130000000,93.710000000,92.820000000,906559
2013-07-18T07:00:00Z,93.190000000,94.240000000,94.340000000,92.990000000,365135
2013-07-19T07:00:00Z,94.240000000,94.930000000,94.950000000,93.900000000,553474
2013-07-22T07:00:00Z,94.790000000,95.220000000,95.360000000,94.140000000,526944
2013-07-23T07:00:00Z,95.290000000,95.610000000,95.830000000,94.830000000,695656
2013-07-24T07:00:00Z,95.570000000,93.610000000,95.650000000,92.660000000,1278294
2013-07-25T07:00:00Z,93.120000000,92.880000000,94.080000000,92.370000000,1169440
2013-07-26T07:00:00Z,92.690000000,92.900000000,93.160000000,92.030000000,491554
2013-07-29T07:00:00Z,93.320000000,91.710000000,93.320000000,91.550000000,713899
2013-07-30T07:00:00Z,92.410000000,91.210000000,92.650000000,90.560000000,560147
2013-07-31T07:00:00Z,91.590000000,90.650000000,91.870000000,89.540000000,932926
2013-08-01T07:00:00Z,91.310000000,90.750000000,91.740000000,90.110000000,787701
2013-08-02T07:00:00Z,90.380000000,89.850000000,91.390000000,89.227500000,605557
2013-08-05T07:00:00Z,89.870000000,89.930000000,90.780000000,89.350000000,278159
2013-08-06T07:00:00Z,89.540000000,89.550000000,90.580000000,88.180000000,395680
2013-08-07T07:00:00Z,89.880000000,89.410000000,90.240000000,89.050000000,488519
2013-08-08T07:00:00Z,89.700000000,89.780000000,90.040000000,89.220000000,336998
2013-08-09T07:00:00Z,89.670000000,90.140000000,90.930000000,89.250000000,957314
2013-08-12T07:00:00Z,89.730000000,89.710000000,90.040000000,89.010000000,907545
2013-08-13T07:00:00Z,89.580000000,88.820000000,89.580000000,88.250000000,791693
2013-08-14T07:00:00Z,88.520000000,89.450000000,89.780000000,88.270000000,641564
2013-08-15T07:00:00Z,88.350000000,88.510000000,89.060000000,87.770000000,866754
2013-08-16T07:00:00Z,88.150000000,86.130000000,88.390000000,85.970000000,628901
2013-08-19T07:00:00Z,86.110000000,85.400000000,86.190000000,85.200000000,876768
2013-08-20T07:00:00Z,85.560000000,87.390000000,87.980000000,85.422500000,924354
2013-08-21T07:00:00Z,87.320000000,86.520000000,88.240000000,86.100000000,729848
2013-08-22T07:00:00Z,86.630000000,87.150000000,87.440000000,86.010000000,538199
2013-08-23T07:00:00Z,87.470000000,87.950000000,88.030000000,86.786000000,858076
2013-08-26T07:00:00Z,87.950000000,87.770000000,88.210000000,87.300000000,502227
2013-08-27T07:00:00Z,86.840000000,87.600000000,87.990000000,86.650000000,696186
2013-08-28T07:00:00Z,87.770000000,87.380000000,87.810000000,86.900000000,457946
2013-08-29T07:00:00Z,87.190000000,87.580000000,87.620000000,86.665000000,467068
2013-08-30T07:00:00Z,87.780000000,87.190000000,88.160000000,86.810000000,692888
2013-09-03T07:00:00Z,88.090000000,86.010000000,88.090000000,84.890000000,1077183
2013-09-04T07:00:00Z,86.070000000,86.340000000,86.700000000,85.400000000,531818
2013-09-05T07:00:00Z,86.200000000,85.580000000,86.800000000,85.360000000,357259
2013-09-06T07:00:00Z,86.260000000,86.810000000,87.110000000,85.510000000,608255
2013-09-09T07:00:00Z,87.320000000,89.290000000,89.350000000,86.280000000,531656
2013-09-10T07:00:00Z,89.410000000,89.920000000,90.350000000,88.780000000,739712
2013-09-11T07:00:00Z,89.670000000,90.820000000,90.820000000,89.530000000,515847
2013-09-12T07:00:00Z,90.810000000,89.220000000,91.200000000,88.980000000,611609
2013-09-13T07:00:00Z,89.430000000,90.210000000,90.260000000,88.950000000,521741
2013-09-16T07:00:00Z,91.480000000,90.820000000,92.420000000,90.270000000,601195
2013-09-17T07:00:00Z,90.950000000,90.450000000,91.850000000,89.910000000,468980
2013-09-18T07:00:00Z,90.730000000,93.220000000,93.440000000,89.890000000,683245
2013-09-19T07:00:00Z,93.590000000,92.830000000,94.740000000,92.690000000,751885
2013-09-20T07:00:00Z,93.100000000,91.320000000,93.480000000,91.320000000,888773
2013-09-23T07:00:00Z,91.220000000,90.430000000,91.920000000,90.400000000,695664
2013-09-24T07:00:00Z,90.630000000,88.950000000,90.790000000,88.780000000,704702
2013-09-25T07:00:00Z,88.950000000,88.690000000,89.405000000,87.910000000,932545
2013-09-26T07:00:00Z,88.590000000,88.840000000,89.090000000,88.010000000,528842
2013-09-27T07:00:00Z,88.220000000,88.590000000,88.870000000,87.930000000,336607
2013-09-30T07:00:00Z,87.920000000,88.840000000,89.020000000,87.920000000,607237
2013-10-01T07:00:00Z,88.950000000,90.200000000,91.508000000,88.630000000,1346178
2013-10-02T07:00:00Z,89.600000000,90.130000000,90.190000000,88.780000000,820581
2013-10-03T07:00:00Z,89.650000000,88.390000000,89.980000000,87.970000000,828490
2013-10-04T07:00:00Z,88.400000000,88.840000000,89.450000000,88.080000000,439571
2013-10-07T07:00:00Z,88.150000000,88.500000000,88.810000000,87.710000000,518511
2013-10-08T07:00:00Z,88.600000000,87.630000000,88.740000000,87.490000000,605044
2013-10-09T07:00:00Z,87.950000000,88.080000000,88.830000000,87.730000000,622430
2013-10-10T07:00:00Z,89.020000000,89.990000000,90.040000000,88.690000000,641482
2013-10-11T07:00:00Z,89.620000000,92.270000000,92.270000000,89.070000000,796367
2013-10-14T07:00:00Z,91.770000000,92.010000000,92.400000000,91.310000000,653713
2013-10-15T07:00:00Z,91.520000000,92.330000000,92.960000000,91.420000000,655192
2013-10-16T07:00:00Z,92.790000000,93.420000000,93.698000000,90.650000000,633451
2013-10-17T07:00:00Z,93.000000000,94.670000000,94.790000000,92.760000000,501998
2013-10-18T07:00:00Z,94.530000000,94.710000000,94.990000000,93.780000000,596493
2013-10-21T07:00:00Z,94.500000000,94.120000000,94.680000000,93.710000000,494485
2013-10-22T07:00:00Z,94.250000000,95.020000000,95.450000000,92.860000000,493841
2013-10-23T07:00:00Z,94.810000000,95.330000000,95.440000000,94.060000000,614090
2013-10-24T07:00:00Z,95.480000000,96.600000000,97.110000000,94.600000000,664020
2013-10-25T07:00:00Z,97.160000000,98.090000000,98.180000000,96.535000000,459545
2013-10-28T07:00:00Z,98.140000000,98.150000000,98.250000000,96.580000000,641308
2013-10-29T07:00:00Z,96.070000000,95.350000000,96.320000000,95.060000000,2701982
2013-10-30T07:00:00Z,95.790000000,95.240000000,95.790000000,94.520000000,943260
2013-10-31T07:00:00Z,95.350000000,94.570000000,95.520000000,94.140000000,862523
2013-11-01T07:00:00Z,95.040000000,95.670000000,95.797500000,94.380000000,669854
2013-11-04T07:00:00Z,95.760000000,95.340000000,96.140000000,94.710000000,524726
2013-11-05T07:00:00Z,94.860000000,93.740000000,95.220000000,93.680000000,580848
2013-11-06T07:00:00Z,93.920000000,92.920000000,94.320000000,92.850000000,632493
2013-11-07T07:00:00Z,93.040000000,91.430000000,93.340000000,91.340000000,807440
2013-11-08T07:00:00Z,91.090000000,91.300000000,91.590000000,89.540000000,621615
2013-11-11T07:00:00Z,91.550000000,91.860000000,92.010000000,90.860000000,525099
2013-11-12T07:00:00Z,91.460000000,90.890000000,91.740000000,89.870000000,763764
2013-11-13T07:00:00Z,90.500000000,91.390000000,91.400000000,89.940000000,553815
2013-11-14T07:00:00Z,91.680000000,92.120000000,92.640000000,91.560000000,432370
2013-11-15T07:00:00Z,91.840000000,92.700000000,92.740000000,91.400000000,619894
2013-11-18T07:00:00Z,92.700000000,91.970000000,93.000000000,91.800000000,452707
2013-11-19T07:00:00Z,91.600000000,91.200000000,91.980000000,90.730000000,456502
2013-11-20T07:00:00Z,91.310000000,90.410000000,92.420000000,89.760000000,505066
2013-11-21T07:00:00Z,91.000000000,91.040000000,91.400000000,90.060000000,324935
2013-11-22T07:00:00Z,91.080000000,91.710000000,91.770000000,90.450000000,510888
2013-11-25T07:00:00Z,91.910000000,91.580000000,92.110000000,91.250000000,440313
2013-11-26T07:00:00Z,91.520000000,90.960000000,91.720000000,90.660000000,653679
2013-11-27T07:00:00Z,90.970000000,91.680000000,91.900000000,90.580000000,318248
2013-11-29T07:00:00Z,92.000000000,90.470000000,92.000000000,90.450000000,260512
2013-12-02T07:00:00Z,90.470000000,90.530000000,92.060000000,89.840000000,536315
2013-12-03T07:00:00Z,90.270000000,91.070000000,91.440000000,90.220000000,515962
2013-12-04T07:00:00Z,90.210000000,91.500000000,92.135000000,89.930000000,554843
2013-12-05T07:00:00Z,90.650000000,92.420000000,92.500000000,89.780000000,856666
2013-12-06T07:00:00Z,91.270000000,94.240000000,94.420000000,91.270000000,878531
2013-12-09T07:00:00Z,94.240000000,93.490000000,94.600000000,93.230000000,901525
2013-12-10T07:00:00Z,93.830000000,92.480000000,94.440000000,92.260000000,936475
2013-12-11T07:00:00Z,92.840000000,90.150000000,93.140000000,89.990000000,842276
2013-12-12T07:00:00Z,90.220000000,90.100000000,91.260000000,89.230000000,782497
2013-12-13T07:00:00Z,90.430000000,89.760000000,91.580000000,89.500000000,545102
2013-12-16T07:00:00Z,89.620000000,89.530000000,90.730000000,89.500000000,1005817
2013-12-17T07:00:00Z,89.600000000,90.170000000,90.610000000,89.050000000,861728
2013-12-18T07:00:00Z,90.640000000,92.350000000,92.400000000,89.560000000,1080583
2013-12-19T07:00:00Z,92.200000000,92.550000000,93.140000000,91.500000000,922828
2013-12-20T07:00:00Z,91.850000000,91.900000000,92.570000000,91.250000000,1421571
2013-12-23T07:00:00Z,92.300000000,92.810000000,93.420000000,92.010000000,542442
2013-12-24T07:00:00Z,92.780000000,92.660000000,93.565000000,92.490000000,178186
2013-12-26T07:00:00Z,92.660000000,92.400000000,93.190000000,92.030000000,252860
2013-12-27T07:00:00Z,91.890000000,92.050000000,92.180000000,91.010000000,269367
2013-12-30T07:00:00Z,92.140000000,92.080000000,92.620000000,91.720000000,379707
2013-12-31T07:00:00Z,92.310000000,92.380000000,93.160000000,92.010000000,611080
2013-12-31T07:00:00Z,92.310000000,92.380000000,93.160000000,92.010000000,611080
2014-01-02T07:00:00Z,92.170000000,91.980000000,92.770000000,91.180000000,614582
2014-01-03T07:00:00Z,92.070000000,92.810000000,93.650000000,91.970000000,689966
2014-01-06T07:00:00Z,92.920000000,92.310000000,93.320000000,92.140000000,717112
2014-01-07T07:00:00Z,92.270000000,93.140000000,93.432500000,91.620000000,508637
2014-01-08T07:00:00Z,93.320000000,93.050000000,93.660000000,92.530000000,520907
2014-01-09T07:00:00Z,93.120000000,92.490000000,93.180000000,91.260000000,637501
2014-01-10T07:00:00Z,92.860000000,92.810000000,93.310000000,92.270000000,542027
2014-01-13T07:00:00Z,92.730000000,92.150000000,93.250000000,91.660000000,396545
2014-01-14T07:00:00Z,92.460000000,92.830000000,93.050000000,91.820000000,498604
2014-01-15T07:00:00Z,92.900000000,93.680000000,93.850000000,92.570000000,366143
2014-01-16T07:00:00Z,93.190000000,93.500000000,93.740000000,92.830000000,304123
2014-01-17T07:00:00Z,93.260000000,92.990000000,93.500000000,92.700000000,348018
2014-01-21T07:00:00Z,93.560000000,93.850000000,93.960000000,93.070000000,398335
2014-01-22T07:00:00Z,93.960000000,94.440000000,94.890000000,93.630000000,499810
2014-01-23T07:00:00Z,94.310000000,93.930000000,94.800000000,93.590000000,502868
2014-01-24T07:00:00Z,93.730000000,92.040000000,93.970000000,91.990000000,470322
2014-01-27T07:00:00Z,92.040000000,91.340000000,92.940000000,91.110000000,595949
2014-01-28T07:00:00Z,91.760000000,92.920000000,93.630000000,91.760000000,830455
2014-01-29T07:00:00Z,92.550000000,92.020000000,93.240000000,91.460000000,540974
2014-01-30T07:00:00Z,91.940000000,93.740000000,93.990000000,91.100000000,595800
2014-01-31T07:00:00Z,92.650000000,93.770000000,94.670000000,92.635000000,706453
2014-02-03T07:00:00Z,93.860000000,90.960000000,93.860000000,90.550000000,1343433
2014-02-04T07:00:00Z,91.210000000,93.660000000,93.830000000,90.810000000,1189306
2014-02-05T07:00:00Z,93.560000000,93.500000000,94.360000000,92.740000000,635167
2014-02-06T07:00:00Z,93.530000000,94.030000000,94.200000000,93.300000000,509336
2014-02-07T07:00:00Z,94.500000000,94.410000000,95.105000000,93.730000000,354773
2014-02-10T07:00:00Z,94.280000000,95.640000000,95.730000000,93.590000000,492791
2014-02-11T07:00:00Z,95.390000000,96.020000000,96.390000000,94.795000000,506401
2014-02-12T07:00:00Z,95.930000000,96.260000000,96.290000000,95.362000000,411035
2014-02-13T07:00:00Z,95.420000000,96.020000000,97.030000000,95.360000000,806578
2014-02-14T07:00:00Z,95.920000000,96.670000000,97.000000000,95.834000000,412321
2014-02-18T07:00:00Z,96.520000000,97.070000000,97.090000000,95.690000000,391493
2014-02-19T07:00:00Z,96.630000000,97.230000000,98.040000000,96.440000000,648586
2014-02-20T07:00:00Z,97.260000000,96.800000000,98.050000000,96.430000000,409562
2014-02-21T07:00:00Z,96.800000000,96.900000000,97.400000000,96.400000000,383421
2014-02-24T07:00:00Z,96.900000000,96.800000000,97.730000000,96.580100000,467511
2014-02-25T07:00:00Z,97.060000000,99.700000000,99.970000000,96.970000000,1247766
2014-02-26T07:00:00Z,100.000000000,98.970000000,100.000000000,98.815000000,647814
2014-02-27T07:00:00Z,98.840000000,98.580000000,101.780000000,98.010000000,445152
2014-02-28T07:00:00Z,98.480000000,99.330000000,99.860000000,98.370000000,634771
2014-03-03T07:00:00Z,98.650000000,99.130000000,99.360000000,97.980000000,775576
2014-03-04T07:00:00Z,99.350000000,100.510000000,100.740000000,99.350000000,666353
2014-03-05T07:00:00Z,100.250000000,99.940000000,100.810000000,99.240000000,480001
2014-03-06T07:00:00Z,99.990000000,99.640000000,100.240000000,99.255000000,368710
2014-03-07T07:00:00Z,99.740000000,98.890000000,99.880000000,98.210000000,475571
2014-03-10T07:00:00Z,98.890000000,97.780000000,99.215000000,97.290000000,568543
2014-03-11T07:00:00Z,98.100000000,98.700000000,99.460000000,98.080000000,642101
2014-03-12T07:00:00Z,98.320000000,98.700000000,99.050000000,98.270000000,420359
2014-03-13T07:00:00Z,98.960000000,97.830000000,99.130000000,97.530000000,346970
2014-03-14T07:00:00Z,97.820000000,98.500000000,99.100000000,97.820000000,415218
2014-03-17T07:00:00Z,99.100000000,98.800000000,99.580000000,98.030000000,382554
2014-03-18T07:00:00Z,98.700000000,99.940000000,100.010000000,98.040000000,650318
2014-03-19T07:00:00Z,99.860000000,97.670000000,100.568600000,97.420000000,427283
2014-03-20T07:00:00Z,97.550000000,98.110000000,98.230000000,96.310000000,621018
2014-03-21T07:00:00Z,98.020000000,99.160000000,99.680000000,98.020000000,1069670
2014-03-24T07:00:00Z,99.160000000,98.340000000,99.410000000,97.470000000,353285
2014-03-25T07:00:00Z,98.790000000,99.430000000,99.650000000,98.410000000,354177
2014-03-26T07:00:00Z,99.580000000,98.000000000,99.800000000,98.000000000,436712
2014-03-27T07:00:00Z,97.540000000,98.710000000,98.750000000,97.350000000,429575
2014-03-28T07:00:00Z,98.790000000,99.470000000,100.270000000,98.790000000,263738
2014-03-31T07:00:00Z,99.850000000,100.620000000,100.810000000,99.110000000,596000
2014-04-01T07:00:00Z,100.700000000,101.470000000,101.470000000,100.160000000,808632
2014-04-02T07:00:00Z,101.090000000,101.210000000,101.500000000,100.600000000,616763
2014-04-03T07:00:00Z,101.180000000,100.680000000,101.235000000,100.290000000,323810
2014-04-04T07:00:00Z,101.400000000,101.150000000,101.979000000,100.590000000,332941
2014-04-07T07:00:00Z,100.740000000,101.380000000,102.200000000,100.740000000,478426
2014-04-08T07:00:00Z,101.620000000,101.900000000,102.210000000,100.974000000,613879
2014-04-09T07:00:00Z,102.140000000,101.190000000,102.350000000,101.110000000,562467
2014-04-10T07:00:00Z,101.080000000,99.760000000,102.000000000,99.740000000,585095
2014-04-11T07:00:00Z,99.480000000,99.310000000,100.550000000,99.080000000,946219
2014-04-14T07:00:00Z,100.090000000,100.100000000,100.750000000,99.421400000,513142
2014-04-15T07:00:00Z,100.170000000,102.060000000,102.251000000,100.170000000,983098
2014-04-16T07:00:00Z,102.560000000,102.620000000,103.460000000,101.245000000,774777
2014-04-17T07:00:00Z,102.270000000,101.490000000,102.430000000,101.200000000,830651
2014-04-21T07:00:00Z,101.810000000,102.110000000,102.480000000,101.210000000,605808
2014-04-22T07:00:00Z,102.240000000,102.290000000,102.600000000,101.370000000,692748
2014-04-23T07:00:00Z,101.740000000,101.960000000,102.420000000,101.720000000,855010
2014-04-24T07:00:00Z,102.530000000,103.380000000,104.600000000,101.225000000,733716
2014-04-25T07:00:00Z,103.210000000,102.210000000,103.240000000,102.160000000,440855
2014-04-28T07:00:00Z,102.710000000,103.750000000,103.790000000,102.480000000,587374
2014-04-29T07:00:00Z,103.950000000,103.510000000,104.090000000,103.160000000,930466
2014-04-30T07:00:00Z,103.470000000,104.710000000,104.740000000,103.000000000,812207
2014-05-01T07:00:00Z,104.320000000,105.560000000,105.710000000,103.870000000,686444
2014-05-02T07:00:00Z,105.720000000,106.100000000,106.950000000,105.210000000,623644
2014-05-05T07:00:00Z,105.700000000,106.030000000,106.440000000,105.090000000,861218
2014-05-06T07:00:00Z,105.550000000,106.070000000,106.490000000,105.080000000,517058
2014-05-07T07:00:00Z,106.630000000,107.590000000,107.750000000,106.120000000,568838
2014-05-08T07:00:00Z,107.570000000,107.890000000,108.850000000,107.270000000,989087
2014-05-09T07:00:00Z,107.920000000,108.490000000,108.550000000,107.590000000,583375
2014-05-12T07:00:00Z,108.630000000,108.950000000,109.100000000,108.340000000,448889
2014-05-13T07:00:00Z,109.000000000,108.400000000,109.660000000,108.110000000,375904
2014-05-14T07:00:00Z,108.440000000,108.300000000,109.030000000,107.730000000,540985
2014-05-15T07:00:00Z,108.290000000,107.990000000,108.770000000,107.080000000,693479
2014-05-16T07:00:00Z,108.210000000,108.570000000,108.570000000,107.395000000,590025
2014-05-19T07:00:00Z,108.500000000,108.370000000,108.940000000,107.800000000,445365
2014-05-20T07:00:00Z,108.270000000,108.370000000,108.910000000,108.010000000,424318
2014-05-21T07:00:00Z,108.820000000,108.250000000,109.895000000,108.090000000,383940
2014-05-22T07:00:00Z,108.180000000,107.780000000,108.490000000,107.750000000,813005
2014-05-23T07:00:00Z,108.130000000,108.900000000,108.900000000,107.780000000,404712
2014-05-27T07:00:00Z,108.990000000,109.100000000,109.330000000,108.000000000,476113
2014-05-28T07:00:00Z,108.880000000,108.490000000,108.910000000,107.640000000,508288
2014-05-29T07:00:00Z,108.720000000,109.000000000,109.210000000,108.150000000,360748
2014-05-30T07:00:00Z,109.090000000,109.490000000,109.810000000,108.510000000,585846
2014-06-02T07:00:00Z,109.710000000,110.390000000,110.630000000,109.280000000,357349
2014-06-03T07:00:00Z,110.010000000,110.120000000,110.710000000,109.470000000,374184
2014-06-04T07:00:00Z,109.960000000,110.630000000,110.880000000,109.680000000,318967
2014-06-05T07:00:00Z,110.820000000,112.790000000,112.850000000,110.290000000,435647
2014-06-06T07:00:00Z,112.750000000,112.480000000,112.750000000,111.790000000,445670
2014-06-09T07:00:00Z,112.400000000,111.320000000,112.940000000,111.117500000,612563
2014-06-10T07:00:00Z,111.120000000,110.240000000,111.510000000,109.610000000,533372
2014-06-11T07:00:00Z,110.510000000,110.520000000,111.080000000,109.610000000,583913
2014-06-12T07:00:00Z,110.520000000,110.150000000,110.720000000,109.110000000,633087
2014-06-13T07:00:00Z,110.470000000,110.700000000,111.085000000,109.370000000,541282
2014-06-16T07:00:00Z,110.790000000,110.200000000,111.200000000,109.940000000,385902
2014-06-17T07:00:00Z,110.040000000,110.000000000,110.550000000,109.362000000,691252
2014-06-18T07:00:00Z,109.920000000,110.650000000,111.200000000,109.530000000,592131
2014-06-19T07:00:00Z,111.180000000,111.570000000,111.570000000,110.670000000,406630
2014-06-20T07:00:00Z,111.260000000,111.020000000,111.590000000,110.625000000,1018656
2014-06-23T07:00:00Z,111.200000000,110.750000000,111.640000000,110.650000000,463288
2014-06-24T07:00:00Z,110.490000000,110.660000000,110.990000000,110.145000000,560441
2014-06-25T07:00:00Z,110.650000000,110.060000000,111.100000000,109.940000000,818056
2014-06-26T07:00:00Z,109.660000000,109.000000000,109.800000000,108.520000000,516503
2014-06-27T07:00:00Z,108.860000000,109.320000000,109.580000000,108.720000000,831338
2014-06-30T07:00:00Z,109.510000000,109.410000000,110.110000000,108.610000000,546424
2014-07-01T07:00:00Z,110.010000000,109.640000000,110.010000000,108.260000000,1167734
2014-07-02T07:00:00Z,109.690000000,108.900000000,109.690000000,108.580000000,595627
2014-07-03T07:00:00Z,108.900000000,108.340000000,109.140000000,108.060000000,273762
2014-07-07T07:00:00Z,108.420000000,108.260000000,109.060000000,108.000000000,605403
2014-07-08T07:00:00Z,108.440000000,108.690000000,109.015000000,108.290000000,518000
2014-07-09T07:00:00Z,108.720000000,108.610000000,109.000000000,107.505000000,696383
2014-07-10T07:00:00Z,108.410000000,109.750000000,109.970000000,108.180000000,893136
2014-07-11T07:00:00Z,109.790000000,109.220000000,109.965000000,108.960000000,410402
2014-07-14T07:00:00Z,109.450000000,109.500000000,109.720000000,108.720000000,442093
2014-07-15T07:00:00Z,109.510000000,110.280000000,110.570000000,109.510000000,656894
2014-07-16T07:00:00Z,110.380000000,110.250000000,110.620000000,109.500000000,652790
2014-07-17T07:00:00Z,110.130000000,109.390000000,110.570000000,109.390000000,494007
2014-07-18T07:00:00Z,109.850000000,110.610000000,110.715000000,109.630000000,482052
2014-07-21T07:00:00Z,110.510000000,110.260000000,110.820000000,109.980000000,603502
2014-07-22T07:00:00Z,111.330000000,111.720000000,111.980000000,110.480000000,664111
2014-07-23T07:00:00Z,111.610000000,111.630000000,112.060000000,111.300000000,414852
2014-07-24T07:00:00Z,111.630000000,111.860000000,112.650000000,110.900000000,908354
2014-07-25T07:00:00Z,111.750000000,109.750000000,111.880000000,109.610000000,705559
2014-07-28T07:00:00Z,109.780000000,110.310000000,110.800000000,109.430000000,382917
2014-07-29T07:00:00Z,110.240000000,109.010000000,111.020000000,109.010000000,465922
2014-07-30T07:00:00Z,109.190000000,109.370000000,109.810000000,108.880000000,478298
2014-07-31T07:00:00Z,108.770000000,107.800000000,109.290000000,107.670000000,518042
2014-08-01T07:00:00Z,107.730000000,107.330000000,108.310000000,107.110000000,1103941
2014-08-04T07:00:00Z,107.230000000,108.170000000,108.520000000,106.710000000,512237
2014-08-05T07:00:00Z,107.610000000,106.770000000,108.165000000,106.610000000,369164
2014-08-06T07:00:00Z,106.570000000,106.800000000,107.470000000,105.590000000,441518
2014-08-07T07:00:00Z,106.720000000,106.760000000,107.920000000,106.180000000,405625
2014-08-08T07:00:00Z,106.810000000,107.350000000,107.480000000,106.070000000,288166
2014-08-11T07:00:00Z,107.530000000,107.820000000,108.350000000,107.310000000,349512
2014-08-12T07:00:00Z,107.820000000,107.990000000,108.430000000,107.450000000,270025
2014-08-13T07:00:00Z,108.120000000,110.070000000,110.180000000,108.120000000,804186
2014-08-14T07:00:00Z,110.380000000,110.130000000,110.640000000,109.380000000,326902
2014-08-15T07:00:00Z,110.170000000,109.830000000,110.680000000,109.440000000,387331
2014-08-18T07:00:00Z,110.380000000,110.960000000,111.240000000,110.100000000,392886
2014-08-19T07:00:00Z,110.960000000,111.140000000,111.602800000,110.680000000,811115
2014-08-20T07:00:00Z,110.820000000,111.120000000,111.430000000,109.840000000,558879
2014-08-21T07:00:00Z,111.400000000,110.290000000,111.700000000,110.280000000,585549
2014-08-22T07:00:00Z,110.320000000,109.740000000,110.410000000,109.090000000,354992
2014-08-25T07:00:00Z,110.010000000,109.180000000,110.010000000,108.990000000,523154
2014-08-26T07:00:00Z,109.170000000,109.400000000,110.060000000,108.720000000,389209
2014-08-27T07:00:00Z,109.780000000,109.600000000,110.340000000,109.125000000,436914
2014-08-28T07:00:00Z,109.520000000,109.220000000,110.010000000,109.120000000,297345
2014-08-29T07:00:00Z,109.700000000,109.350000000,109.880000000,109.020000000,1304765
2014-09-02T07:00:00Z,109.240000000,109.230000000,109.800000000,109.080000000,662852
2014-09-03T07:00:00Z,109.830000000,109.070000000,110.150000000,108.920000000,568347
2014-09-04T07:00:00Z,108.990000000,108.620000000,109.540000000,108.550000000,431197
2014-09-05T07:00:00Z,108.770000000,108.880000000,109.390000000,108.550000000,960061
2014-09-08T07:00:00Z,108.670000000,109.290000000,109.493000000,108.460000000,546466
2014-09-09T07:00:00Z,109.480000000,109.230000000,109.540000000,108.980000000,584717
2014-09-10T07:00:00Z,108.960000000,107.800000000,108.990000000,107.730000000,457935
2014-09-11T07:00:00Z,107.510000000,108.250000000,108.670000000,107.460000000,537659
2014-09-12T07:00:00Z,107.570000000,103.980000000,107.860000000,103.970000000,926249
2014-09-15T07:00:00Z,104.040000000,103.450000000,104.510000000,103.220000000,540204
2014-09-16T07:00:00Z,103.320000000,103.990000000,104.700000000,103.000000000,890365
2014-09-17T07:00:00Z,104.470000000,105.140000000,105.980000000,104.390000000,771389
2014-09-18T07:00:00Z,105.160000000,105.310000000,105.690000000,104.770000000,1045848
2014-09-19T07:00:00Z,104.720000000,105.250000000,105.750000000,104.720000000,1351161
2014-09-22T07:00:00Z,104.800000000,103.600000000,105.080000000,103.560000000,587683
2014-09-23T07:00:00Z,103.520000000,102.830000000,104.190000000,102.800000000,642407
2014-09-24T07:00:00Z,102.750000000,102.200000000,103.390000000,101.940000000,1019775
2014-09-25T07:00:00Z,102.180000000,101.340000000,102.750000000,100.900000000,838322
2014-09-26T07:00:00Z,101.000000000,102.630000000,102.930000000,100.720000000,779869
2014-09-29T07:00:00Z,102.280000000,102.490000000,102.580000000,101.290000000,501762
2014-09-30T07:00:00Z,102.540000000,101.320000000,102.750000000,101.180000000,765333
2014-10-01T07:00:00Z,101.110000000,101.320000000,101.800000000,100.570000000,1182131
2014-10-02T07:00:00Z,100.950000000,101.570000000,101.780000000,99.890000000,1342937
2014-10-03T07:00:00Z,102.170000000,102.120000000,102.700000000,101.270000000,578648
2014-10-06T07:00:00Z,102.380000000,102.510000000,103.100000000,101.680000000,586903
2014-10-07T07:00:00Z,102.030000000,101.230000000,102.830000000,101.140000000,426712
2014-10-08T07:00:00Z,101.570000000,104.260000000,104.370000000,101.460000000,889684
2014-10-09T07:00:00Z,103.890000000,104.080000000,105.080000000,103.420000000,870706
2014-10-10T07:00:00Z,104.390000000,105.310000000,106.260000000,104.370000000,807126
2014-10-13T07:00:00Z,106.020000000,105.770000000,107.080000000,105.560000000,829246
2014-10-14T07:00:00Z,105.950000000,108.200000000,108.565000000,105.770000000,1061880
2014-10-15T07:00:00Z,107.530000000,106.700000000,109.270000000,106.295000000,2305696
2014-10-16T07:00:00Z,105.940000000,107.670000000,108.010000000,105.535000000,1129359
2014-10-17T07:00:00Z,108.920000000,108.250000000,108.920000000,107.080000000,873185
2014-10-20T07:00:00Z,108.230000000,109.790000000,109.860000000,108.190000000,715432
2014-10-21T07:00:00Z,107.930000000,110.880000000,110.960000000,107.930000000,724907
2014-10-22T07:00:00Z,110.880000000,110.600000000,111.900000000,110.450000000,769701
2014-10-23T07:00:00Z,111.290000000,112.730000000,112.740000000,110.650000000,1050081
2014-10-24T07:00:00Z,112.540000000,112.170000000,113.082500000,111.650000000,674629
2014-10-27T07:00:00Z,112.190000000,112.730000000,112.840000000,111.760000000,743585
2014-10-28T07:00:00Z,112.940000000,113.370000000,113.415000000,112.420000000,843016
2014-10-29T07:00:00Z,113.060000000,113.240000000,113.520000000,112.280000000,1194597
2014-10-30T07:00:00Z,112.890000000,114.940000000,115.000000000,112.640100000,793317
2014-10-31T07:00:00Z,115.650000000,115.700000000,115.990000000,114.720000000,999848
2014-11-03T07:00:00Z,115.680000000,116.500000000,116.650000000,115.300000000,1287401
2014-11-04T07:00:00Z,116.540000000,116.800000000,116.960000000,115.750000000,692782
2014-11-05T07:00:00Z,117.150000000,116.800000000,117.420000000,116.110000000,998201
2014-11-06T07:00:00Z,116.620000000,115.000000000,116.645000000,114.820000000,880646
2014-11-07T07:00:00Z,115.000000000,114.060000000,115.522000000,113.940000000,663652
2014-11-10T07:00:00Z,114.080000000,115.410000000,115.590000000,113.940000000,918110
2014-11-11T07:00:00Z,115.100000000,114.130000000,115.350000000,113.750000000,408830
2014-11-12T07:00:00Z,113.770000000,112.170000000,114.030000000,112.020000000,701116
2014-11-13T07:00:00Z,112.550000000,113.650000000,113.660000000,112.110000000,466544
2014-11-14T07:00:00Z,113.820000000,113.140000000,114.070000000,112.820000000,467529
2014-11-17T07:00:00Z,113.190000000,113.210000000,113.810000000,112.690000000,511306
2014-11-18T07:00:00Z,113.480000000,114.330000000,114.620000000,113.170000000,591337
2014-11-19T07:00:00Z,113.950000000,114.220000000,114.700000000,113.460000000,574221
2014-11-20T07:00:00Z,114.080000000,114.250000000,114.450000000,113.570000000,593125
2014-11-21T07:00:00Z,114.730000000,114.370000000,115.230000000,114.190000000,671822
2014-11-24T07:00:00Z,114.780000000,114.650000000,115.150000000,114.240000000,540917
2014-11-25T07:00:00Z,114.700000000,114.430000000,115.110000000,113.990000000,650270
2014-11-26T07:00:00Z,114.850000000,115.870000000,115.970000000,114.370000000,458182
2014-11-28T07:00:00Z,116.080000000,116.140000000,117.170000000,115.510000000,356033
2014-12-01T07:00:00Z,116.160000000,116.350000000,117.130000000,115.460000000,759019
2014-12-02T07:00:00Z,116.120000000,118.270000000,118.340000000,115.806000000,825490
2014-12-03T07:00:00Z,118.100000000,118.780000000,118.840000000,117.590000000,716435
2014-12-04T07:00:00Z,118.730000000,119.130000000,119.350000000,117.720000000,739881
2014-12-05T07:00:00Z,118.430000000,119.530000000,119.560000000,117.461100000,771710
2014-12-08T07:00:00Z,119.530000000,120.450000000,120.520000000,118.620000000,912776
2014-12-09T07:00:00Z,120.190000000,122.280000000,122.410000000,119.710000000,657686
2014-12-10T07:00:00Z,122.290000000,122.480000000,123.160000000,121.430000000,885578
2014-12-11T07:00:00Z,122.900000000,122.220000000,123.894000000,122.120000000,438798
2014-12-12T07:00:00Z,121.630000000,120.390000000,122.850000000,120.310000000,582648
2014-12-15T07:00:00Z,120.940000000,119.060000000,121.100000000,118.440000000,536822
2014-12-16T07:00:00Z,119.000000000,118.720000000,120.130000000,118.150000000,836152
2014-12-17T07:00:00Z,118.880000000,122.260000000,122.280000000,118.370000000,903756
2014-12-18T07:00:00Z,123.000000000,123.100000000,123.600000000,122.300000000,815261
2014-12-19T07:00:00Z,122.860000000,121.780000000,123.245000000,120.970000000,1557054
2014-12-22T07:00:00Z,121.750000000,122.670000000,122.760000000,121.150000000,653107
2014-12-23T07:00:00Z,123.100000000,121.930000000,123.380000000,121.810000000,559129
2014-12-24T07:00:00Z,121.370000000,120.980000000,122.650000000,120.880000000,365027
2014-12-26T07:00:00Z,121.460000000,122.040000000,122.450000000,121.460000000,372786
2014-12-29T07:00:00Z,122.130000000,121.570000000,123.210000000,121.520000000,532275
2014-12-30T07:00:00Z,121.400000000,121.490000000,122.570000000,121.123000000,455021
2014-12-31T07:00:00Z,122.180000000,119.020000000,122.700000000,118.970000000,554439
2014-12-31T07:00:00Z,122.180000000,119.020000000,122.700000000,118.970000000,554439
2015-01-02T07:00:00Z,119.750000000,121.320000000,121.430000000,119.535000000,384927
2015-01-05T07:00:00Z,120.930000000,121.980000000,122.500000000,120.380000000,611536
2015-01-06T07:00:00Z,121.980000000,122.920000000,123.500000000,121.880000000,664652
2015-01-07T07:00:00Z,123.480000000,124.340000000,124.510000000,122.150000000,600705
2015-01-08T07:00:00Z,124.340000000,124.950000000,125.780000000,124.170000000,587300
2015-01-09T07:00:00Z,124.770000000,125.200000000,125.770000000,124.040000000,322791
2015-01-12T07:00:00Z,126.180000000,127.720000000,128.060000000,124.940000000,796808
2015-01-13T07:00:00Z,128.230000000,127.420000000,128.550000000,126.500000000,574875
2015-01-14T07:00:00Z,126.770000000,128.170000000,128.450000000,125.890000000,576452
2015-01-15T07:00:00Z,128.290000000,128.310000000,128.710000000,127.490000000,605453
2015-01-16T07:00:00Z,128.080000000,128.000000000,128.400000000,127.270000000,711520
2015-01-20T07:00:00Z,128.040000000,127.750000000,128.509900000,127.330000000,1043916
2015-01-21T07:00:00Z,127.750000000,127.720000000,128.170000000,126.970000000,569771
2015-01-22T07:00:00Z,128.000000000,128.640000000,129.000000000,126.900000000,1021068
2015-01-23T07:00:00Z,127.860000000,128.510000000,128.934000000,127.422700000,530684
2015-01-26T07:00:00Z,128.540000000,130.560000000,130.560000000,128.010100000,524629
2015-01-27T07:00:00Z,129.780000000,130.310000000,130.750000000,129.570000000,461071
2015-01-28T07:00:00Z,130.570000000,130.020000000,131.640000000,129.560000000,866107
2015-01-29T07:00:00Z,130.280000000,129.610000000,130.770000000,127.890000000,733434
2015-01-30T07:00:00Z,128.290000000,126.000000000,128.860000000,125.980000000,926092
2015-02-02T07:00:00Z,126.330000000,126.240000000,126.880000000,123.550000000,763381
2015-02-03T07:00:00Z,125.220000000,127.610000000,127.620000000,124.790000000,554465
2015-02-04T07:00:00Z,126.950000000,127.390000000,127.980000000,126.160000000,357109
2015-02-05T07:00:00Z,127.430000000,129.380000000,129.420000000,127.225000000,438525
2015-02-06T07:00:00Z,128.980000000,127.580000000,128.990000000,126.860000000,1506280
2015-02-09T07:00:00Z,127.280000000,126.590000000,128.550000000,126.550000000,775804
2015-02-10T07:00:00Z,127.160000000,127.410000000,127.660000000,126.020000000,508769
2015-02-11T07:00:00Z,127.670000000,127.460000000,128.115000000,126.000000000,391542
2015-02-12T07:00:00Z,126.800000000,129.240000000,129.500000000,126.280000000,499736
2015-02-13T07:00:00Z,129.340000000,128.590000000,129.880000000,127.925000000,376738
2015-02-17T07:00:00Z,128.270000000,128.410000000,130.220000000,127.870000000,400827
2015-02-18T07:00:00Z,128.660000000,129.930000000,130.190000000,127.700000000,510451
2015-02-19T07:00:00Z,129.360000000,127.170000000,129.720000000,126.880000000,406727
2015-02-20T07:00:00Z,126.740000000,128.640000000,128.850000000,126.380000000,477682
2015-02-23T07:00:00Z,129.230000000,129.750000000,129.950000000,127.740000000,536561
2015-02-24T07:00:00Z,129.480000000,126.880000000,129.480000000,125.810000000,721240
2015-02-25T07:00:00Z,126.790000000,127.120000000,128.700000000,126.530000000,390801
2015-02-26T07:00:00Z,127.320000000,125.760000000,127.320000000,125.500000000,425140
2015-02-27T07:00:00Z,126.070000000,126.930000000,127.010000000,124.820000000,630514
2015-03-02T07:00:00Z,127.210000000,127.890000000,129.100000000,126.770000000,405927
2015-03-03T07:00:00Z,127.640000000,128.110000000,128.660000000,126.940000000,326404
2015-03-04T07:00:00Z,127.690000000,127.360000000,128.550000000,126.740000000,376987
2015-03-05T07:00:00Z,127.850000000,127.910000000,129.360000000,127.360000000,384784
2015-03-06T07:00:00Z,126.530000000,123.540000000,126.530000000,123.110000000,668956
2015-03-09T07:00:00Z,124.480000000,125.170000000,125.340000000,123.850000000,630416
2015-03-10T07:00:00Z,124.820000000,124.230000000,125.660000000,123.850000000,1200400
2015-03-11T07:00:00Z,124.610000000,124.000000000,124.829900000,123.730000000,663254
2015-03-12T07:00:00Z,124.950000000,127.350000000,127.400000000,124.770000000,689371
2015-03-13T07:00:00Z,127.400000000,127.420000000,127.680000000,126.290000000,580509
2015-03-16T07:00:00Z,128.300000000,128.390000000,129.390000000,127.690100000,1444652
2015-03-17T07:00:00Z,128.050000000,129.140000000,129.320000000,127.450000000,1081336
2015-03-18T07:00:00Z,128.760000000,130.600000000,130.810000000,127.050000000,996171
2015-03-19T07:00:00Z,130.130000000,130.420000000,131.520000000,129.840000000,1289768
2015-03-20T07:00:00Z,130.870000000,134.000000000,135.810000000,130.860000000,16474471
2015-03-23T07:00:00Z,133.180000000,133.420000000,135.090000000,132.870000000,1072966
2015-03-24T07:00:00Z,133.100000000,131.630000000,134.020000000,131.240000000,1044264
2015-03-25T07:00:00Z,131.830000000,129.280000000,132.100000000,128.710000000,693739
2015-03-26T07:00:00Z,129.030000000,128.280000000,129.140000000,126.860000000,858898
2015-03-27T07:00:00Z,127.850000000,127.740000000,128.550000000,127.180000000,576442
2015-03-30T07:00:00Z,128.250000000,129.550000000,129.760000000,127.520000000,601833
2015-03-31T07:00:00Z,129.160000000,128.380000000,129.940000000,128.150000000,897696
2015-04-01T07:00:00Z,128.650000000,127.950000000,128.730000000,127.000000000,594149
2015-04-02T07:00:00Z,127.720000000,129.880000000,130.090000000,127.720000000,514622
2015-04-06T07:00:00Z,130.330000000,131.640000000,131.990000000,129.490000000,563967
2015-04-07T07:00:00Z,131.400000000,129.480000000,131.570000000,129.430000000,617453
2015-04-08T07:00:00Z,129.450000000,130.010000000,130.450000000,129.450000000,470175
2015-04-09T07:00:00Z,129.720000000,127.100000000,130.020000000,127.000000000,587707
2015-04-10T07:00:00Z,128.200000000,127.850000000,128.940000000,127.300000000,378646
2015-04-13T07:00:00Z,127.370000000,127.540000000,128.270000000,127.370000000,492355
2015-04-14T07:00:00Z,127.700000000,128.320000000,129.080000000,127.700000000,492503
2015-04-15T07:00:00Z,128.390000000,126.870000000,129.890000000,126.780000000,517524
2015-04-16T07:00:00Z,126.500000000,127.740000000,128.210000000,126.230000000,321619
2015-04-17T07:00:00Z,127.550000000,126.680000000,127.810000000,125.600000000,549858
2015-04-20T07:00:00Z,126.750000000,127.030000000,127.780000000,126.398000000,560407
2015-04-21T07:00:00Z,127.430000000,128.120000000,128.680000000,127.430000000,555708
2015-04-22T07:00:00Z,128.090000000,128.510000000,129.480000000,127.620000000,828374
2015-04-23T07:00:00Z,128.510000000,127.350000000,129.440000000,126.130000000,794391
2015-04-24T07:00:00Z,127.330000000,128.820000000,129.180000000,126.730000000,829256
2015-04-27T07:00:00Z,129.240000000,129.150000000,130.240000000,128.560000000,581773
2015-04-28T07:00:00Z,128.500000000,127.750000000,128.500000000,127.160000000,503861
2015-04-29T07:00:00Z,126.770000000,124.060000000,127.540000000,123.760000000,645860
2015-04-30T07:00:00Z,123.610000000,122.360000000,124.078000000,121.580000000,799000
2015-05-01T07:00:00Z,122.780000000,122.720000000,124.310000000,122.525000000,671334
2015-05-04T07:00:00Z,123.170000000,123.650000000,124.350000000,123.140000000,529107
2015-05-05T07:00:00Z,123.080000000,120.190000000,123.670000000,119.820000000,667159
2015-05-06T07:00:00Z,120.000000000,119.330000000,120.650000000,118.560000000,600537
2015-05-07T07:00:00Z,119.510000000,121.160000000,121.730000000,118.990000000,547016
2015-05-08T07:00:00Z,122.510000000,123.010000000,124.955000000,122.390000000,528961
2015-05-11T07:00:00Z,122.470000000,121.130000000,123.590000000,120.670000000,455997
2015-05-12T07:00:00Z,120.290000000,121.530000000,122.180000000,119.560000000,487039
2015-05-13T07:00:00Z,122.030000000,120.270000000,122.900000000,119.840000000,580163
2015-05-14T07:00:00Z,121.010000000,122.790000000,122.870000000,120.730000000,448966
2015-05-15T07:00:00Z,122.720000000,123.720000000,124.680000000,122.720000000,1006091
2015-05-18T07:00:00Z,122.870000000,121.870000000,123.690000000,121.750000000,915939
2015-05-19T07:00:00Z,121.700000000,120.370000000,121.810000000,120.200000000,903789
2015-05-20T07:00:00Z,120.390000000,120.610000000,121.370000000,120.000000000,968815
2015-05-21T07:00:00Z,120.730000000,119.290000000,121.140000000,118.850000000,681972
2015-05-22T07:00:00Z,119.290000000,119.210000000,120.460000000,118.650000000,713568
2015-05-26T07:00:00Z,119.090000000,119.180000000,119.485000000,118.360000000,606506
2015-05-27T07:00:00Z,119.070000000,120.480000000,120.650000000,118.970000000,420786
2015-05-28T07:00:00Z,120.110000000,119.940000000,121.115000000,119.130000000,521876
2015-05-29T07:00:00Z,120.090000000,118.660000000,120.480000000,118.430000000,980542
2015-06-01T07:00:00Z,118.810000000,121.000000000,121.170000000,118.260000000,731814
2015-06-02T07:00:00Z,120.240000000,119.760000000,120.290000000,118.920000000,436694
2015-06-03T07:00:00Z,119.550000000,118.820000000,120.750000000,118.300000000,713867
2015-06-04T07:00:00Z,118.410000000,117.630000000,118.920000000,117.410000000,752333
2015-06-05T07:00:00Z,116.780000000,116.270000000,116.920000000,115.620000000,737836
2015-06-08T07:00:00Z,116.270000000,115.410000000,116.540000000,115.370000000,517847
2015-06-09T07:00:00Z,115.410000000,114.570000000,115.710000000,114.330000000,593110
2015-06-10T07:00:00Z,114.750000000,115.040000000,116.070000000,113.990000000,692406
2015-06-11T07:00:00Z,115.890000000,115.900000000,116.370000000,115.210000000,574554
2015-06-12T07:00:00Z,115.980000000,114.940000000,116.600000000,114.790000000,592012
2015-06-15T07:00:00Z,114.540000000,114.130000000,114.990000000,112.900000000,1411314
2015-06-16T07:00:00Z,114.190000000,114.990000000,115.144000000,113.960000000,703091
2015-06-17T07:00:00Z,115.010000000,115.630000000,115.830000000,114.210000000,667448
2015-06-18T07:00:00Z,116.000000000,116.530000000,117.660000000,115.130000000,961016
2015-06-19T07:00:00Z,116.180000000,115.360000000,116.350000000,115.000000000,964449
2015-06-22T07:00:00Z,115.320000000,114.370000000,116.180000000,114.250000000,632220
2015-06-23T07:00:00Z,114.250000000,113.830000000,115.660000000,113.630000000,798775
2015-06-24T07:00:00Z,114.010000000,113.510000000,114.580000000,113.440000000,549789
2015-06-25T07:00:00Z,113.060000000,112.140000000,113.560000000,112.130000000,743009
2015-06-26T07:00:00Z,111.590000000,111.720000000,112.670000000,111.180000000,1145506
2015-06-29T07:00:00Z,112.350000000,110.030000000,112.590000000,109.960000000,701593
2015-06-30T07:00:00Z,110.720000000,109.890000000,111.260000000,109.450000000,785340
2015-07-01T07:00:00Z,110.620000000,111.960000000,111.960000000,109.580700000,1021425
2015-07-02T07:00:00Z,112.630000000,112.740000000,114.030000000,112.540000000,846255
2015-07-06T07:00:00Z,112.330000000,113.560000000,113.850000000,111.050000000,643209
2015-07-07T07:00:00Z,114.000000000,114.960000000,115.490000000,112.470000000,601809
2015-07-08T07:00:00Z,114.350000000,114.100000000,115.270000000,113.930000000,605159
2015-07-09T07:00:00Z,114.750000000,113.930000000,115.040000000,113.530000000,583055
2015-07-10T07:00:00Z,114.650000000,114.930000000,115.590000000,114.230000000,366833
2015-07-13T07:00:00Z,113.980000000,114.260000000,116.040000000,113.360000000,730123
2015-07-14T07:00:00Z,114.210000000,114.400000000,114.960000000,112.620000000,668479
2015-07-15T07:00:00Z,113.930000000,114.400000000,114.590000000,113.450000000,377550
2015-07-16T07:00:00Z,115.080000000,115.220000000,115.530000000,114.730000000,632983
2015-07-17T07:00:00Z,114.940000000,114.520000000,115.340000000,114.155000000,377096
2015-07-20T07:00:00Z,114.300000000,114.670000000,114.990000000,113.760000000,450759
2015-07-21T07:00:00Z,114.540000000,114.580000000,115.215000000,113.950000000,549142
2015-07-22T07:00:00Z,114.460000000,114.820000000,115.420000000,114.060100000,406888
2015-07-23T07:00:00Z,114.620000000,112.740000000,115.200000000,111.920000000,792953
2015-07-24T07:00:00Z,112.740000000,113.200000000,113.970000000,112.130000000,624746
2015-07-27T07:00:00Z,113.530000000,113.290000000,114.100000000,112.920000000,717415
2015-07-28T07:00:00Z,113.400000000,113.670000000,114.110000000,112.910000000,474801
2015-07-29T07:00:00Z,113.560000000,114.610000000,114.720000000,112.790000000,698592
2015-07-30T07:00:00Z,114.250000000,114.210000000,114.950000000,113.810000000,582800
2015-07-31T07:00:00Z,114.550000000,115.140000000,115.990000000,113.490000000,819803
2015-08-03T07:00:00Z,115.140000000,115.660000000,115.880000000,114.690000000,445850
2015-08-04T07:00:00Z,115.370000000,114.720000000,116.310000000,113.090000000,511829
2015-08-05T07:00:00Z,115.070000000,113.850000000,115.260000000,113.210000000,534296
2015-08-06T07:00:00Z,113.430000000,113.810000000,114.030000000,112.000000000,472863
2015-08-07T07:00:00Z,113.510000000,113.620000000,114.570000000,112.700000000,479711
2015-08-10T07:00:00Z,114.270000000,113.700000000,114.440000000,113.230000000,570698
2015-08-11T07:00:00Z,113.090000000,114.490000000,115.160000000,113.090000000,509026
2015-08-12T07:00:00Z,113.560000000,114.730000000,114.890000000,113.420000000,444633
2015-08-13T07:00:00Z,114.070000000,115.690000000,115.800000000,113.080000000,682233
2015-08-14T07:00:00Z,115.360000000,115.940000000,116.350000000,114.420000000,668770
2015-08-17T07:00:00Z,116.100000000,116.970000000,117.060000000,115.190000000,520237
2015-08-18T07:00:00Z,116.730000000,116.690000000,116.890000000,116.060000000,407858
2015-08-19T07:00:00Z,116.050000000,116.060000000,116.638000000,115.100000000,405418
2015-08-20T07:00:00Z,114.830000000,113.980000000,115.230000000,113.850000000,861750
2015-08-21T07:00:00Z,113.560000000,111.580000000,113.880000000,111.530000000,649964
2015-08-24T07:00:00Z,107.500000000,105.250000000,110.310000000,104.640000000,1406745
2015-08-25T07:00:00Z,107.370000000,101.890000000,107.450000000,101.850000000,1106131
2015-08-26T07:00:00Z,103.720000000,105.010000000,105.220000000,102.410000000,1077298
2015-08-27T07:00:00Z,106.010000000,106.310000000,107.300000000,104.580000000,879751
2015-08-28T07:00:00Z,105.530000000,106.560000000,106.822000000,105.275000000,596973
2015-08-31T07:00:00Z,106.330000000,103.510000000,106.530000000,103.400000000,785446
2015-09-01T07:00:00Z,102.960000000,101.330000000,102.960000000,100.400000000,716169
2015-09-02T07:00:00Z,102.060000000,102.600000000,103.120000000,101.510000000,499019
2015-09-03T07:00:00Z,103.170000000,103.160000000,103.760000000,102.230000000,527390
2015-09-04T07:00:00Z,102.040000000,100.950000000,102.460000000,99.970000000,711753
2015-09-08T07:00:00Z,102.340000000,102.800000000,102.990000000,101.430000000,419948
2015-09-09T07:00:00Z,103.990000000,101.830000000,104.525000000,101.620000000,566761
2015-09-10T07:00:00Z,101.870000000,103.040000000,104.559000000,101.870000000,651717
2015-09-11T07:00:00Z,102.690000000,105.050000000,105.070000000,102.555000000,523982
2015-09-14T07:00:00Z,105.380000000,104.720000000,105.559900000,104.340000000,347096
2015-09-15T07:00:00Z,104.890000000,106.280000000,106.530000000,104.110000000,660641
2015-09-16T07:00:00Z,106.180000000,108.260000000,108.430000000,105.460100000,504568
2015-09-17T07:00:00Z,108.330000000,110.580000000,112.530000000,107.825000000,887834
2015-09-18T07:00:00Z,109.350000000,110.200000000,110.900000000,109.230000000,1268607
2015-09-21T07:00:00Z,110.690000000,111.110000000,111.950000000,109.850000000,956917
2015-09-22T07:00:00Z,110.000000000,109.250000000,110.770000000,108.930000000,637792
2015-09-23T07:00:00Z,109.310000000,110.350000000,110.790000000,108.850000000,349119
2015-09-24T07:00:00Z,110.010000000,109.410000000,110.660000000,108.640000000,987250
2015-09-25T07:00:00Z,109.710000000,109.730000000,110.560000000,108.870000000,426235
2015-09-28T07:00:00Z,108.540000000,107.640000000,108.958000000,106.980000000,626667
2015-09-29T07:00:00Z,107.850000000,108.950000000,109.500000000,107.330000000,573390
2015-09-30T07:00:00Z,110.180000000,108.160000000,110.180000000,107.655000000,818092
2015-10-01T07:00:00Z,108.630000000,108.560000000,108.770000000,106.950000000,447888
2015-10-02T07:00:00Z,107.590000000,109.650000000,109.700000000,107.230000000,438866
2015-10-05T07:00:00Z,109.840000000,111.780000000,111.810000000,109.700000000,342039
2015-10-06T07:00:00Z,111.710000000,112.130000000,112.760000000,111.120000000,315296
2015-10-07T07:00:00Z,112.980000000,113.820000000,113.850000000,112.590000000,643476
2015-10-08T07:00:00Z,113.770000000,114.200000000,114.270000000,112.890000000,490715
2015-10-09T07:00:00Z,114.190000000,114.230000000,114.310000000,113.065000000,372114
2015-10-12T07:00:00Z,114.460000000,114.600000000,115.130000000,113.520000000,515263
2015-10-13T07:00:00Z,114.230000000,113.920000000,115.000000000,113.320000000,474651
2015-10-14T07:00:00Z,114.110000000,113.830000000,114.950000000,111.730000000,672639
2015-10-15T07:00:00Z,114.290000000,116.320000000,116.360000000,111.430000000,556877
2015-10-16T07:00:00Z,116.800000000,117.610000000,118.020000000,116.140000000,727053
2015-10-19T07:00:00Z,117.260000000,119.000000000,119.080000000,117.260000000,455903
2015-10-20T07:00:00Z,118.620000000,118.340000000,119.590000000,117.530000000,484223
2015-10-21T07:00:00Z,118.980000000,117.520000000,119.300000000,117.260000000,584405
2015-10-22T07:00:00Z,117.640000000,119.240000000,120.750000000,117.640000000,1203584
2015-10-23T07:00:00Z,119.280000000,117.680000000,119.630000000,117.130000000,1202508
2015-10-26T07:00:00Z,118.020000000,118.240000000,118.310000000,116.830000000,770319
2015-10-27T07:00:00Z,118.060000000,118.610000000,118.870000000,117.350000000,661939
2015-10-28T07:00:00Z,118.680000000,118.610000000,119.510000000,116.260000000,535693
2015-10-29T07:00:00Z,118.320000000,119.180000000,119.370000000,118.150000000,444765
2015-10-30T07:00:00Z,119.480000000,118.620000000,119.980000000,118.580000000,733961
2015-11-02T07:00:00Z,118.690000000,121.800000000,121.892000000,118.370000000,624799
2015-11-03T07:00:00Z,121.430000000,119.920000000,121.940000000,119.680000000,661695
2015-11-04T07:00:00Z,120.190000000,119.820000000,120.590000000,119.330000000,522497
2015-11-05T07:00:00Z,119.670000000,120.140000000,120.710000000,118.910000000,389282
2015-11-06T07:00:00Z,119.110000000,116.240000000,119.110000000,115.190000000,662973
2015-11-09T07:00:00Z,115.700000000,114.750000000,115.910000000,113.740000000,456661
2015-11-10T07:00:00Z,114.860000000,117.040000000,117.200000000,114.600000000,473295
2015-11-11T07:00:00Z,117.300000000,117.180000000,117.715000000,116.520000000,354701
2015-11-12T07:00:00Z,116.800000000,115.990000000,117.000000000,115.800000000,358639
2015-11-13T07:00:00Z,117.050000000,115.210000000,117.510000000,115.080000000,372300
2015-11-16T07:00:00Z,115.070000000,116.050000000,116.050000000,114.470000000,382133
2015-11-17T07:00:00Z,115.830000000,116.660000000,117.990000000,115.240000000,500454
2015-11-18T07:00:00Z,117.080000000,117.970000000,118.040000000,116.230000000,302996
2015-11-19T07:00:00Z,118.240000000,118.380000000,119.110000000,117.540000000,270281
2015-11-20T07:00:00Z,118.820000000,119.310000000,119.830000000,118.800000000,377916
2015-11-23T07:00:00Z,119.210000000,118.890000000,119.892500000,118.350000000,497132
2015-11-24T07:00:00Z,118.370000000,117.560000000,118.380000000,116.840000000,759623
2015-11-25T07:00:00Z,117.770000000,118.290000000,118.340000000,117.210000000,349074
2015-11-27T07:00:00Z,118.120000000,118.920000000,119.610000000,117.710000000,168132
2015-11-30T07:00:00Z,119.350000000,118.080000000,119.915000000,117.950000000,646472
2015-12-01T07:00:00Z,118.630000000,120.540000000,120.620000000,118.630000000,458057
2015-12-02T07:00:00Z,120.220000000,117.720000000,120.790000000,117.540000000,558131
2015-12-03T07:00:00Z,117.380000000,116.270000000,117.730000000,115.520000000,664467
2015-12-04T07:00:00Z,117.190000000,117.820000000,118.450000000,116.940000000,776874
2015-12-07T07:00:00Z,117.470000000,115.980000000,117.540000000,115.520000000,662087
2015-12-08T07:00:00Z,116.370000000,115.080000000,117.150000000,114.710000000,953189
2015-12-09T07:00:00Z,114.300000000,115.120000000,116.220000000,113.790000000,745129
2015-12-10T07:00:00Z,115.380000000,112.980000000,115.540000000,112.830000000,783824
2015-12-11T07:00:00Z,112.260000000,111.870000000,113.000000000,111.005000000,660726
2015-12-14T07:00:00Z,111.890000000,111.450000000,112.190000000,110.230000000,707443
2015-12-15T07:00:00Z,112.400000000,112.700000000,113.280000000,111.860000000,599468
2015-12-16T07:00:00Z,113.220000000,114.310000000,114.540000000,112.280000000,551412
2015-12-17T07:00:00Z,114.500000000,112.750000000,114.900000000,112.300000000,780968
2015-12-18T07:00:00Z,112.040000000,110.220000000,112.750000000,110.140000000,1023851
2015-12-21T07:00:00Z,111.390000000,110.000000000,111.860000000,109.360000000,632919
2015-12-22T07:00:00Z,110.610000000,110.440000000,111.175000000,109.960000000,643803
2015-12-23T07:00:00Z,110.950000000,113.120000000,113.290000000,110.950000000,789288
2015-12-24T07:00:00Z,113.000000000,113.050000000,114.200000000,112.240000000,320817
2015-12-28T07:00:00Z,112.780000000,113.450000000,113.630000000,112.250000000,255910
2015-12-29T07:00:00Z,114.100000000,114.070000000,114.725000000,113.450000000,574395
2015-12-30T07:00:00Z,113.250000000,114.030000000,114.480000000,112.050000000,431292
2015-12-31T07:00:00Z,113.950000000,112.980000000,113.970000000,112.390000000,476148
2015-12-31T07:00:00Z,113.950000000,112.980000000,113.970000000,112.390000000,476148
2016-01-04T07:00:00Z,111.810000000,110.080000000,111.810000000,109.190000000,479220
2016-01-05T07:00:00Z,110.500000000,110.920000000,111.140000000,109.800000000,502014
2016-01-06T07:00:00Z,109.870000000,109.250000000,110.210000000,108.455000000,1133163
2016-01-07T07:00:00Z,108.020000000,106.390000000,108.340000000,106.210000000,993175
2016-01-08T07:00:00Z,106.740000000,104.270000000,107.340000000,104.090000000,786842
2016-01-11T07:00:00Z,104.710000000,104.710000000,106.020000000,104.410000000,882392
2016-01-12T07:00:00Z,105.180000000,102.970000000,105.420000000,102.500000000,886900
2016-01-13T07:00:00Z,103.200000000,102.150000000,103.500000000,101.770000000,863269
2016-01-14T07:00:00Z,102.300000000,101.820000000,102.683000000,101.160000000,838637
2016-01-15T07:00:00Z,100.470000000,100.140000000,100.510000000,98.560000000,1120661
2016-01-19T07:00:00Z,101.240000000,100.060000000,101.240000000,99.560000000,786843
2016-01-20T07:00:00Z,98.950000000,96.630000000,99.230000000,94.218000000,1340191
2016-01-21T07:00:00Z,97.120000000,96.750000000,99.000000000,96.070000000,954784
2016-01-22T07:00:00Z,98.160000000,102.110000000,102.990000000,98.160000000,1570781
2016-01-25T07:00:00Z,102.290000000,101.660000000,103.810000000,101.280000000,1047846
2016-01-26T07:00:00Z,101.870000000,103.180000000,103.180000000,101.870000000,1089497
2016-01-27T07:00:00Z,102.710000000,101.670000000,102.710000000,100.815000000,896791
2016-01-28T07:00:00Z,105.000000000,93.420000000,105.240000000,92.000000000,3049506
2016-01-29T07:00:00Z,94.740000000,96.610000000,97.395000000,92.880000000,3596983
2016-02-01T07:00:00Z,95.770000000,92.970000000,96.450000000,92.840000000,2072075
2016-02-02T07:00:00Z,93.400000000,89.880000000,93.570000000,88.240000000,2581283
2016-02-03T07:00:00Z,90.280000000,89.070000000,90.310000000,87.150000000,1413275
2016-02-04T07:00:00Z,88.650000000,91.050000000,92.360000000,88.050000000,1471545
2016-02-05T07:00:00Z,91.060000000,87.750000000,91.230000000,87.630000000,2033302
2016-02-08T07:00:00Z,87.360000000,83.880000000,87.850000000,82.090000000,1735609
2016-02-09T07:00:00Z,82.450000000,81.190000000,83.470000000,80.300000000,1890585
2016-02-10T07:00:00Z,82.050000000,82.720000000,84.120000000,81.580000000,1189542
2016-02-11T07:00:00Z,81.490000000,80.540000000,81.890000000,80.120000000,1849421
2016-02-12T07:00:00Z,81.730000000,81.010000000,82.000000000,80.550000000,1348027
2016-02-16T07:00:00Z,83.340000000,82.730000000,83.998900000,82.040000000,976171
2016-02-17T07:00:00Z,83.490000000,83.690000000,85.640000000,83.450000000,1786643
2016-02-18T07:00:00Z,83.760000000,85.170000000,85.980000000,83.240000000,1545362
2016-02-19T07:00:00Z,84.760000000,87.320000000,87.690000000,84.300000000,2733578
2016-02-22T07:00:00Z,88.190000000,90.100000000,90.300000000,88.090000000,1462215
2016-02-23T07:00:00Z,89.330000000,88.640000000,91.250000000,88.110000000,1146783
2016-02-24T07:00:00Z,88.000000000,88.510000000,88.770000000,87.070000000,559349
2016-02-25T07:00:00Z,89.200000000,90.040000000,90.280000000,89.200000000,816672
2016-02-26T07:00:00Z,89.980000000,89.340000000,90.610000000,89.310000000,901692
2016-02-29T07:00:00Z,89.440000000,88.180000000,89.980000000,87.980000000,1337174
2016-03-01T07:00:00Z,89.010000000,93.370000000,93.390000000,88.930000000,1178697
2016-03-02T07:00:00Z,93.060000000,94.310000000,94.330000000,92.440000000,804669
2016-03-03T07:00:00Z,94.420000000,95.330000000,95.430000000,93.840000000,1160883
2016-03-04T07:00:00Z,95.280000000,94.980000000,95.620000000,94.330000000,1624610
2016-03-07T07:00:00Z,94.420000000,93.840000000,94.680000000,93.240000000,951538
2016-03-08T07:00:00Z,93.510000000,91.100000000,93.965000000,90.790000000,1017498
2016-03-09T07:00:00Z,91.530000000,92.630000000,93.480000000,91.030000000,872521
2016-03-10T07:00:00Z,93.500000000,92.540000000,93.500000000,91.500000000,651819
2016-03-11T07:00:00Z,94.360000000,94.890000000,95.030000000,92.900000000,809908
2016-03-14T07:00:00Z,94.400000000,94.300000000,96.760000000,93.610000000,548343
2016-03-15T07:00:00Z,93.500000000,92.750000000,93.880000000,92.250000000,864677
2016-03-16T07:00:00Z,92.140000000,95.250000000,95.460000000,92.090000000,1053443
2016-03-17T07:00:00Z,95.460000000,96.500000000,97.080000000,95.000000000,851307
2016-03-18T07:00:00Z,96.480000000,94.750000000,96.860000000,94.730000000,954818
2016-03-21T07:00:00Z,95.320000000,96.100000000,96.230000000,94.670000000,1011646
2016-03-22T07:00:00Z,95.250000000,96.170000000,96.690000000,95.100000000,951293
2016-03-23T07:00:00Z,95.890000000,94.530000000,96.440000000,94.530000000,900099
2016-03-24T07:00:00Z,93.700000000,94.270000000,94.380000000,92.510000000,961088
2016-03-28T07:00:00Z,94.480000000,94.200000000,95.050000000,93.218000000,550461
2016-03-29T07:00:00Z,93.550000000,96.240000000,96.960000000,93.420000000,871073
2016-03-30T07:00:00Z,96.670000000,95.860000000,97.210000000,95.720000000,546109
2016-03-31T07:00:00Z,95.700000000,96.880000000,97.130000000,95.460000000,1424448
2016-04-01T07:00:00Z,96.310000000,96.660000000,96.960000000,95.650000000,667897
2016-04-04T07:00:00Z,96.620000000,96.310000000,97.400000000,95.902000000,674724
2016-04-05T07:00:00Z,95.550000000,95.510000000,95.910000000,95.300000000,880668
2016-04-06T07:00:00Z,95.620000000,96.870000000,96.955000000,94.390000000,893016
2016-04-07T07:00:00Z,96.320000000,95.650000000,96.510000000,95.170000000,760639
2016-04-08T07:00:00Z,96.810000000,96.930000000,97.470000000,96.400000000,747440
2016-04-11T07:00:00Z,97.110000000,97.850000000,98.180000000,96.560000000,1133182
2016-04-12T07:00:00Z,98.860000000,99.100000000,99.270000000,98.320000000,1284234
2016-04-13T07:00:00Z,99.320000000,98.900000000,99.530000000,98.260000000,572650
2016-04-14T07:00:00Z,98.650000000,99.230000000,99.520000000,98.115000000,485334
2016-04-15T07:00:00Z,99.040000000,100.470000000,100.780000000,98.400000000,1012344
2016-04-18T07:00:00Z,99.850000000,101.210000000,101.220000000,99.610000000,915127
2016-04-19T07:00:00Z,101.540000000,102.360000000,102.410000000,101.020000000,753582
2016-04-20T07:00:00Z,102.040000000,102.120000000,102.639000000,101.690000000,1219156
2016-04-21T07:00:00Z,106.500000000,105.180000000,108.760000000,103.710000000,2090527
2016-04-22T07:00:00Z,105.430000000,105.250000000,106.340000000,105.020000000,853902
2016-04-25T07:00:00Z,105.070000000,105.910000000,105.910000000,105.010000000,636256
2016-04-26T07:00:00Z,106.130000000,106.590000000,106.680000000,105.560000000,586362
2016-04-27T07:00:00Z,106.500000000,106.250000000,107.150000000,105.390000000,531953
2016-04-28T07:00:00Z,105.320000000,105.640000000,106.610000000,105.130000000,457160
2016-04-29T07:00:00Z,105.260000000,105.080000000,105.530000000,102.570000000,1144256
2016-05-02T07:00:00Z,105.970000000,106.720000000,106.930000000,105.430000000,521047
2016-05-03T07:00:00Z,105.790000000,105.140000000,105.990000000,104.150000000,724621
2016-05-04T07:00:00Z,104.450000000,105.230000000,105.930000000,103.990000000,804132
2016-05-05T07:00:00Z,105.200000000,104.710000000,105.785000000,104.150000000,1273571
2016-05-06T07:00:00Z,104.680000000,104.910000000,104.980000000,102.305000000,1293596
2016-05-09T07:00:00Z,105.130000000,105.610000000,105.980000000,103.410000000,957467
2016-05-10T07:00:00Z,106.245000000,106.420000000,106.450000000,105.620000000,803749
2016-05-11T07:00:00Z,106.290000000,104.600000000,106.555000000,104.480000000,1233326
2016-05-12T07:00:00Z,105.100000000,104.100000000,105.100000000,103.200000000,921720
2016-05-13T07:00:00Z,103.890000000,101.990000000,104.310000000,101.470000000,869218
2016-05-16T07:00:00Z,102.040000000,102.730000000,103.610000000,101.370000000,505212
2016-05-17T07:00:00Z,102.490000000,101.040000000,103.660000000,100.480000000,737295
2016-05-18T07:00:00Z,100.570000000,99.290000000,100.940000000,98.110000000,941387
2016-05-19T07:00:00Z,98.550000000,98.330000000,99.480000000,97.290000000,687012
2016-05-20T07:00:00Z,99.020000000,99.340000000,99.970000000,98.500000000,771503
2016-05-23T07:00:00Z,99.490000000,99.690000000,99.980000000,98.850000000,340032
2016-05-24T07:00:00Z,100.570000000,100.090000000,100.600000000,99.620000000,706830
2016-05-25T07:00:00Z,100.320000000,100.390000000,100.750000000,98.970000000,601569
2016-05-26T07:00:00Z,100.430000000,100.370000000,100.960000000,99.630000000,414699
2016-05-27T07:00:00Z,100.570000000,100.580000000,101.630000000,99.690000000,328498
2016-05-31T07:00:00Z,100.740000000,101.360000000,101.710000000,100.280000000,547990
2016-06-01T07:00:00Z,101.030000000,101.430000000,101.790000000,100.710000000,450465
2016-06-02T07:00:00Z,101.190000000,102.060000000,102.060000000,100.120000000,626250
2016-06-03T07:00:00Z,102.620000000,101.530000000,104.710000000,101.370000000,625443
2016-06-06T07:00:00Z,101.690000000,100.440000000,102.180000000,99.930000000,583730
2016-06-07T07:00:00Z,100.490000000,100.790000000,101.390000000,99.470000000,380816
2016-06-08T07:00:00Z,100.670000000,101.300000000,101.380000000,100.450000000,267968
2016-06-09T07:00:00Z,100.970000000,101.480000000,101.980000000,100.610000000,334018
2016-06-10T07:00:00Z,100.930000000,99.970000000,102.920000000,99.855000000,548904
2016-06-13T07:00:00Z,99.970000000,99.460000000,101.440000000,99.230000000,601760
2016-06-14T07:00:00Z,99.430000000,98.420000000,99.920000000,97.920000000,665624
2016-06-15T07:00:00Z,98.540000000,99.730000000,100.620000000,98.180000000,875777
2016-06-16T07:00:00Z,99.040000000,99.860000000,99.960000000,98.010000000,390039
2016-06-17T07:00:00Z,99.760000000,100.320000000,100.420000000,99.260000000,741761
2016-06-20T07:00:00Z,101.190000000,102.250000000,103.410000000,101.100000000,1026346
2016-06-21T07:00:00Z,102.350000000,102.190000000,102.590000000,100.640000000,546267
2016-06-22T07:00:00Z,102.410000000,102.580000000,103.220000000,101.900000000,518239
2016-06-23T07:00:00Z,103.470000000,105.370000000,105.370000000,103.010000000,707566
2016-06-24T07:00:00Z,101.690000000,102.160000000,104.630000000,101.470000000,1401309
2016-06-27T07:00:00Z,101.290000000,97.910000000,101.810000000,97.050000000,1112415
2016-06-28T07:00:00Z,99.020000000,99.930000000,99.980000000,98.690000000,968545
2016-06-29T07:00:00Z,100.780000000,103.020000000,103.040000000,100.720000000,848111
2016-06-30T07:00:00Z,103.170000000,106.470000000,106.520000000,102.440000000,1094760
2016-07-01T07:00:00Z,105.730000000,104.180000000,106.040000000,103.910000000,922832
2016-07-05T07:00:00Z,103.460000000,103.780000000,103.920000000,103.070000000,702530
2016-07-06T07:00:00Z,103.420000000,103.320000000,103.710000000,102.820000000,406393
2016-07-07T07:00:00Z,103.110000000,102.560000000,103.110000000,101.360000000,402597
2016-07-08T07:00:00Z,103.380000000,105.980000000,106.060000000,103.380000000,641410
2016-07-11T07:00:00Z,106.040000000,107.050000000,107.280000000,105.310000000,562907
2016-07-12T07:00:00Z,107.260000000,109.020000000,109.250000000,106.640000000,894999
2016-07-13T07:00:00Z,109.290000000,109.210000000,109.850000000,108.270000000,520408
2016-07-14T07:00:00Z,109.290000000,108.710000000,110.050000000,108.230000000,538133
2016-07-15T07:00:00Z,106.740000000,109.170000000,109.640000000,106.740000000,542816
2016-07-18T07:00:00Z,109.370000000,110.250000000,110.290000000,108.250000000,596936
2016-07-19T07:00:00Z,110.310000000,110.880000000,111.060000000,109.130000000,607741
2016-07-20T07:00:00Z,110.750000000,110.900000000,111.190000000,109.580000000,735527
2016-07-21T07:00:00Z,110.440000000,113.130000000,113.450000000,109.670000000,1009579
2016-07-22T07:00:00Z,113.020000000,114.820000000,115.800000000,113.020000000,1049015
2016-07-25T07:00:00Z,115.130000000,115.660000000,116.330000000,115.000000000,597918
2016-07-26T07:00:00Z,115.920000000,116.010000000,116.680000000,114.910000000,632690
2016-07-27T07:00:00Z,116.050000000,115.940000000,116.500000000,114.950000000,582466
2016-07-28T07:00:00Z,115.880000000,116.300000000,117.400000000,115.600000000,542089
2016-07-29T07:00:00Z,116.370000000,117.820000000,118.420000000,116.230000000,700972
2016-08-01T07:00:00Z,117.800000000,117.490000000,117.920000000,117.020000000,568738
2016-08-02T07:00:00Z,117.180000000,116.030000000,117.710000000,115.700000000,848715
2016-08-03T07:00:00Z,116.200000000,116.280000000,116.610000000,115.500000000,505475
2016-08-04T07:00:00Z,116.100000000,117.010000000,117.210000000,115.570000000,470528
2016-08-05T07:00:00Z,117.590000000,117.560000000,117.940000000,117.100000000,417656
2016-08-08T07:00:00Z,117.850000000,117.690000000,118.355000000,117.210000000,658413
2016-08-09T07:00:00Z,117.610000000,118.000000000,118.060000000,116.970000000,563338
2016-08-10T07:00:00Z,118.190000000,117.770000000,118.710000000,117.200000000,595861
2016-08-11T07:00:00Z,118.310000000,118.840000000,119.250000000,117.770000000,1043988
2016-08-12T07:00:00Z,118.740000000,119.150000000,120.630000000,118.590000000,603133
2016-08-15T07:00:00Z,118.410000000,119.200000000,119.910000000,118.300000000,542386
2016-08-16T07:00:00Z,118.560000000,118.220000000,119.030000000,117.720000000,746473
2016-08-17T07:00:00Z,118.580000000,118.300000000,118.580000000,116.560000000,763202
2016-08-18T07:00:00Z,118.340000000,117.800000000,118.630000000,117.300000000,762996
2016-08-19T07:00:00Z,117.370000000,115.450000000,117.370000000,115.100000000,907419
2016-08-22T07:00:00Z,115.490000000,116.190000000,116.350000000,114.830000000,443602
2016-08-23T07:00:00Z,116.810000000,115.950000000,116.810000000,115.950000000,439729
2016-08-24T07:00:00Z,115.960000000,115.490000000,116.410000000,114.460000000,683102
2016-08-25T07:00:00Z,115.640000000,115.520000000,117.400000000,115.270000000,615132
2016-08-26T07:00:00Z,115.930000000,114.260000000,116.358000000,113.510000000,852385
2016-08-29T07:00:00Z,114.630000000,115.560000000,115.730000000,114.630000000,452037
2016-08-30T07:00:00Z,115.700000000,115.250000000,116.020000000,114.120000000,589983
2016-08-31T07:00:00Z,115.440000000,117.720000000,117.840000000,114.790000000,1576270
2016-09-01T07:00:00Z,117.730000000,115.530000000,117.850000000,114.780000000,761943
2016-09-02T07:00:00Z,116.210000000,116.770000000,118.010000000,115.870000000,450509
2016-09-06T07:00:00Z,116.930000000,117.340000000,117.420000000,116.100000000,413854
2016-09-07T07:00:00Z,117.080000000,118.440000000,118.870000000,116.390000000,672096
2016-09-08T07:00:00Z,117.880000000,116.590000000,118.140000000,116.260000000,1061461
2016-09-09T07:00:00Z,115.450000000,111.000000000,115.450000000,111.000000000,733635
2016-09-12T07:00:00Z,110.610000000,113.930000000,114.530000000,110.600000000,683163
2016-09-13T07:00:00Z,112.640000000,110.800000000,113.080000000,110.360000000,773906
2016-09-14T07:00:00Z,110.900000000,110.800000000,111.490000000,110.280000000,422608
2016-09-15T07:00:00Z,110.350000000,110.620000000,111.075000000,109.920000000,662857
2016-09-16T07:00:00Z,109.830000000,109.910000000,110.410000000,109.600000000,1303822
2016-09-19T07:00:00Z,110.360000000,110.370000000,110.637500000,110.010000000,771255
2016-09-20T07:00:00Z,111.240000000,110.230000000,111.410000000,110.090000000,395817
2016-09-21T07:00:00Z,110.510000000,112.150000000,112.500000000,109.290000000,580796
2016-09-22T07:00:00Z,112.980000000,113.680000000,114.040000000,112.940000000,679088
2016-09-23T07:00:00Z,113.100000000,113.830000000,114.700000000,112.250000000,522801
2016-09-26T07:00:00Z,113.390000000,112.290000000,113.685000000,112.100000000,685298
2016-09-27T07:00:00Z,112.430000000,110.790000000,112.590000000,110.510000000,854672
2016-09-28T07:00:00Z,110.270000000,110.390000000,110.945000000,109.720000000,583770
2016-09-29T07:00:00Z,109.660000000,107.910000000,110.190000000,107.900000000,798364
2016-09-30T07:00:00Z,108.530000000,108.100000000,109.150000000,107.500000000,1203255
2016-10-03T07:00:00Z,107.890000000,107.030000000,108.000000000,106.680000000,920496
2016-10-04T07:00:00Z,107.260000000,106.040000000,108.880000000,105.510000000,684950
2016-10-05T07:00:00Z,106.290000000,103.580000000,106.690000000,103.300000000,805417
2016-10-06T07:00:00Z,102.930000000,104.990000000,105.290000000,102.390000000,985292
2016-10-07T07:00:00Z,105.600000000,104.750000000,106.860000000,104.280000000,888531
2016-10-10T07:00:00Z,104.940000000,105.980000000,106.400000000,104.510000000,581435
2016-10-11T07:00:00Z,105.770000000,104.620000000,106.290000000,104.130000000,1101060
2016-10-12T07:00:00Z,104.910000000,105.360000000,105.490000000,104.050000000,593342
2016-10-13T07:00:00Z,104.800000000,105.590000000,105.780000000,104.672500000,695085
2016-10-14T07:00:00Z,106.140000000,105.070000000,106.559900000,104.980000000,769241
2016-10-17T07:00:00Z,105.320000000,105.170000000,106.140000000,104.950000000,661480
2016-10-18T07:00:00Z,106.410000000,105.330000000,106.410000000,105.115000000,552567
2016-10-19T07:00:00Z,105.300000000,105.700000000,105.770000000,104.640000000,643567
2016-10-20T07:00:00Z,108.000000000,104.520000000,108.445000000,103.270100000,1146629
2016-10-21T07:00:00Z,103.500000000,103.610000000,104.140000000,102.080000000,967487
2016-10-24T07:00:00Z,102.740000000,101.830000000,102.740000000,101.020000000,948671
2016-10-25T07:00:00Z,101.270000000,100.500000000,101.355000000,99.780000000,1027616
2016-10-26T07:00:00Z,100.220000000,98.830000000,100.220000000,98.590000000,593059
2016-10-27T07:00:00Z,98.910000000,96.790000000,98.910000000,96.280000000,993415
2016-10-28T07:00:00Z,97.030000000,95.810000000,97.840000000,95.250000000,570998
2016-10-31T07:00:00Z,96.370000000,98.220000000,98.310000000,95.560000000,1051300
2016-11-01T07:00:00Z,98.020000000,96.910000000,98.405000000,96.760000000,1188389
2016-11-02T07:00:00Z,97.040000000,95.470000000,97.620000000,95.470000000,832153
2016-11-03T07:00:00Z,95.320000000,94.230000000,95.870000000,94.080000000,699911
2016-11-04T07:00:00Z,94.270000000,96.050000000,96.120000000,93.900000000,918163
2016-11-07T07:00:00Z,97.970000000,98.630000000,99.210000000,97.480000000,872352
2016-11-08T07:00:00Z,98.700000000,98.150000000,98.740000000,97.650000000,566655
2016-11-09T07:00:00Z,96.470000000,99.430000000,100.000000000,95.060000000,952494
2016-11-10T07:00:00Z,99.590000000,101.770000000,104.060000000,99.000000000,2297131
2016-11-11T07:00:00Z,101.500000000,103.510000000,105.720000000,101.410000000,1643780
2016-11-14T07:00:00Z,103.620000000,107.390000000,108.650000000,103.550000000,1714188
2016-11-15T07:00:00Z,107.450000000,106.110000000,108.230000000,105.520000000,1394038
2016-11-16T07:00:00Z,105.770000000,104.020000000,106.010000000,103.160000000,1000391
2016-11-17T07:00:00Z,104.100000000,104.490000000,106.250000000,103.590000000,919580
2016-11-18T07:00:00Z,104.590000000,103.420000000,104.690000000,102.890000000,730218
2016-11-21T07:00:00Z,103.870000000,104.820000000,105.880000000,103.870000000,1077228
2016-11-22T07:00:00Z,105.150000000,106.070000000,106.620000000,104.540000000,922405
2016-11-23T07:00:00Z,105.070000000,105.380000000,105.710000000,104.020000000,547908
2016-11-25T07:00:00Z,106.000000000,105.170000000,106.490000000,105.010000000,194614
2016-11-28T07:00:00Z,104.780000000,104.890000000,106.669900000,104.140000000,811068
2016-11-29T07:00:00Z,105.080000000,106.030000000,106.570000000,104.480000000,922960
2016-11-30T07:00:00Z,105.670000000,105.360000000,106.279900000,104.400000000,751494
2016-12-01T07:00:00Z,105.110000000,105.370000000,106.920000000,104.840000000,1276151
2016-12-02T07:00:00Z,105.840000000,107.420000000,107.690000000,105.310000000,958217
2016-12-05T07:00:00Z,108.250000000,108.230000000,109.000000000,105.920000000,1480263
2016-12-06T07:00:00Z,108.950000000,109.770000000,110.640000000,108.750000000,931073
2016-12-07T07:00:00Z,110.170000000,111.010000000,111.370000000,109.450000000,1051884
2016-12-08T07:00:00Z,110.120000000,110.750000000,111.209900000,109.020000000,1241334
2016-12-09T07:00:00Z,110.890000000,110.580000000,112.340000000,109.750000000,533027
2016-12-12T07:00:00Z,110.070000000,112.890000000,112.910000000,110.070000000,836820
2016-12-13T07:00:00Z,113.340000000,112.730000000,113.765000000,111.440000000,865510
2016-12-14T07:00:00Z,112.800000000,110.650000000,113.410000000,110.340000000,1507874
2016-12-15T07:00:00Z,110.650000000,107.950000000,110.940000000,107.590000000,889958
2016-12-16T07:00:00Z,108.930000000,109.590000000,110.740000000,108.770000000,1374245
2016-12-19T07:00:00Z,110.180000000,110.110000000,111.020000000,109.530000000,661002
2016-12-20T07:00:00Z,110.270000000,110.300000000,111.710000000,109.540000000,567453
2016-12-21T07:00:00Z,110.360000000,107.610000000,110.750000000,107.270000000,1052055
2016-12-22T07:00:00Z,107.540000000,106.800000000,107.990000000,105.620000000,755969
2016-12-23T07:00:00Z,107.070000000,105.590000000,107.590000000,104.900000000,583763
2016-12-27T07:00:00Z,105.980000000,106.000000000,106.710000000,105.120000000,518556
2016-12-28T07:00:00Z,105.950000000,105.090000000,105.950000000,104.530000000,564557
2016-12-29T07:00:00Z,104.770000000,105.100000000,106.060000000,103.950000000,671509
2016-12-30T07:00:00Z,105.020000000,107.550000000,107.630000000,104.760000000,820249
2016-12-30T07:00:00Z,105.020000000,107.550000000,107.630000000,104.760000000,820249
2017-01-03T07:00:00Z,108.710000000,108.530000000,108.920000000,107.140000000,643905
2017-01-04T07:00:00Z,108.580000000,110.680000000,110.850000000,107.060000000,1115365
2017-01-05T07:00:00Z,109.760000000,109.320000000,110.250000000,107.970000000,571410
2017-01-06T07:00:00Z,109.130000000,110.490000000,111.000000000,108.570000000,589128
2017-01-09T07:00:00Z,110.310000000,107.440000000,111.019900000,106.880000000,930164
2017-01-10T07:00:00Z,107.080000000,106.050000000,107.190000000,105.630000000,666119
2017-01-11T07:00:00Z,106.120000000,105.050000000,106.575000000,104.940000000,623965
2017-01-12T07:00:00Z,105.080000000,106.170000000,106.270000000,104.270000000,527277
2017-01-13T07:00:00Z,106.070000000,106.460000000,106.870000000,106.050000000,532652
2017-01-17T07:00:00Z,106.310000000,108.010000000,108.230000000,105.780000000,951385
2017-01-18T07:00:00Z,108.070000000,108.870000000,109.560000000,107.410000000,702205
2017-01-19T07:00:00Z,108.520000000,107.330000000,108.970000000,106.900000000,665950
2017-01-20T07:00:00Z,107.410000000,108.100000000,108.130000000,106.640000000,452141
2017-01-23T07:00:00Z,107.850000000,109.610000000,109.750000000,107.840000000,383999
2017-01-24T07:00:00Z,109.900000000,109.380000000,110.330000000,109.020000000,528067
2017-01-25T07:00:00Z,109.660000000,108.730000000,110.494000000,108.160000000,695315
2017-01-26T07:00:00Z,109.500000000,110.020000000,111.010000000,109.340000000,661882
2017-01-27T07:00:00Z,110.250000000,109.600000000,110.620000000,107.820000000,725587
2017-01-30T07:00:00Z,109.150000000,109.040000000,109.970000000,108.310000000,549456
2017-01-31T07:00:00Z,108.850000000,108.970000000,110.290000000,108.820000000,739628
2017-02-01T07:00:00Z,109.040000000,106.900000000,110.780000000,106.760000000,674273
2017-02-02T07:00:00Z,107.040000000,108.490000000,109.010000000,106.650000000,569293
2017-02-03T07:00:00Z,109.620000000,108.880000000,110.540000000,108.680000000,556851
2017-02-06T07:00:00Z,108.710000000,108.510000000,109.000000000,107.740000000,506791
2017-02-07T07:00:00Z,108.810000000,107.390000000,109.930000000,107.130000000,594886
2017-02-08T07:00:00Z,107.680000000,108.470000000,109.020000000,107.200000000,336212
2017-02-09T07:00:00Z,108.640000000,108.990000000,109.210000000,108.230000000,449323
2017-02-10T07:00:00Z,108.960000000,109.790000000,109.870000000,108.670000000,425636
2017-02-13T07:00:00Z,110.090000000,110.310000000,110.660000000,108.860000000,389344
2017-02-14T07:00:00Z,110.280000000,111.040000000,111.460000000,109.010000000,568132
2017-02-15T07:00:00Z,110.650000000,111.160000000,111.540000000,109.550000000,524981
2017-02-16T07:00:00Z,111.530000000,110.710000000,112.940000000,110.395000000,574052
2017-02-17T07:00:00Z,110.640000000,111.280000000,111.335000000,109.700000000,383801
2017-02-21T07:00:00Z,111.200000000,112.320000000,112.630000000,110.810000000,533359
2017-02-22T07:00:00Z,112.430000000,112.420000000,112.780000000,111.100100000,530141
2017-02-23T07:00:00Z,112.810000000,112.030000000,113.740000000,111.480000000,451429
2017-02-24T07:00:00Z,111.920000000,111.740000000,112.180000000,110.570000000,605163
2017-02-27T07:00:00Z,112.050000000,112.720000000,113.210000000,111.645000000,362508
2017-02-28T07:00:00Z,112.590000000,112.680000000,112.930000000,111.590000000,601383
2017-03-01T07:00:00Z,112.720000000,113.750000000,115.340000000,111.390000000,1087074
2017-03-02T07:00:00Z,113.380000000,111.500000000,113.729900000,111.070000000,842909
2017-03-03T07:00:00Z,111.890000000,112.290000000,112.595000000,110.920000000,623212
2017-03-06T07:00:00Z,112.070000000,112.820000000,113.240000000,111.750000000,662663
2017-03-07T07:00:00Z,112.640000000,112.120000000,113.035000000,111.400000000,496394
2017-03-08T07:00:00Z,111.780000000,110.780000000,112.010000000,110.690000000,580188
2017-03-09T07:00:00Z,110.860000000,108.850000000,111.320000000,108.030000000,750095
2017-03-10T07:00:00Z,109.520000000,106.680000000,110.160000000,106.250000000,780770
2017-03-13T07:00:00Z,106.710000000,106.440000000,107.280000000,106.240000000,829517
2017-03-14T07:00:00Z,106.410000000,105.710000000,106.430000000,105.280000000,463373
2017-03-15T07:00:00Z,105.790000000,108.800000000,109.300000000,105.790000000,610040
2017-03-16T07:00:00Z,108.510000000,108.210000000,109.620000000,108.010000000,624430
2017-03-17T07:00:00Z,108.580000000,109.310000000,110.080000000,107.890000000,1418442
2017-03-20T07:00:00Z,109.250000000,108.890000000,109.510000000,108.430000000,329906
2017-03-21T07:00:00Z,109.590000000,106.770000000,109.590000000,106.650000000,594581
2017-03-22T07:00:00Z,107.000000000,105.710000000,107.130000000,104.970000000,633348
2017-03-23T07:00:00Z,105.810000000,107.560000000,108.340000000,105.810000000,833087
2017-03-24T07:00:00Z,107.930000000,106.790000000,108.200000000,106.620000000,419785
2017-03-27T07:00:00Z,106.100000000,105.520000000,106.750000000,104.980000000,445481
2017-03-28T07:00:00Z,105.660000000,105.500000000,105.960000000,103.660000000,538101
2017-03-29T07:00:00Z,104.750000000,104.620000000,104.820000000,103.540000000,762832
2017-03-30T07:00:00Z,104.590000000,105.160000000,105.460000000,103.930000000,420504
2017-03-31T07:00:00Z,105.090000000,106.620000000,106.860000000,104.450000000,763668
2017-04-03T07:00:00Z,106.570000000,106.820000000,107.100000000,106.090000000,431471
2017-04-04T07:00:00Z,106.800000000,107.360000000,107.640000000,106.240000000,607999
2017-04-05T07:00:00Z,107.450000000,107.250000000,108.610000000,107.110000000,502988
2017-04-06T07:00:00Z,107.120000000,108.590000000,108.980000000,106.680000000,580508
2017-04-07T07:00:00Z,108.630000000,107.610000000,109.350000000,107.490000000,802192
2017-04-10T07:00:00Z,107.890000000,108.490000000,108.840000000,107.480000000,458217
2017-04-11T07:00:00Z,108.370000000,109.050000000,109.270000000,108.095000000,509862
2017-04-12T07:00:00Z,109.110000000,108.910000000,109.490000000,108.570000000,441372
2017-04-13T07:00:00Z,108.780000000,107.850000000,108.820000000,107.700000000,259206
2017-04-17T07:00:00Z,107.920000000,109.730000000,109.780000000,107.830000000,392054
2017-04-18T07:00:00Z,109.240000000,108.580000000,109.950000000,108.120000000,401282
2017-04-19T07:00:00Z,108.880000000,107.960000000,109.380000000,107.570000000,592003
2017-04-20T07:00:00Z,106.920000000,106.860000000,107.940000000,104.820000000,1312505
2017-04-21T07:00:00Z,106.780000000,107.670000000,108.000000000,106.440000000,996623
2017-04-24T07:00:00Z,108.570000000,107.070000000,108.750000000,106.120000000,1035054
2017-04-25T07:00:00Z,107.070000000,108.260000000,108.355000000,106.660000000,751717
2017-04-26T07:00:00Z,108.000000000,106.030000000,108.230000000,105.990000000,843499
2017-04-27T07:00:00Z,105.910000000,105.130000000,106.310000000,104.740000000,569378
2017-04-28T07:00:00Z,105.010000000,104.930000000,105.260000000,104.040000000,677652
2017-05-01T07:00:00Z,105.140000000,105.600000000,105.860000000,104.740000000,473150
2017-05-02T07:00:00Z,105.690000000,106.210000000,106.460000000,104.890000000,761584
2017-05-03T07:00:00Z,106.500000000,105.160000000,106.500000000,104.640000000,498782
2017-05-04T07:00:00Z,105.010000000,104.860000000,105.110000000,103.790000000,759071
2017-05-05T07:00:00Z,105.040000000,105.510000000,105.900000000,104.810000000,335150
2017-05-08T07:00:00Z,105.700000000,104.740000000,106.030000000,104.240000000,538546
2017-05-09T07:00:00Z,104.650000000,103.500000000,104.780000000,103.215000000,505638
2017-05-10T07:00:00Z,103.230000000,104.230000000,104.800000000,103.060000000,432219
2017-05-11T07:00:00Z,103.790000000,103.470000000,103.945000000,102.170000000,643711
2017-05-12T07:00:00Z,103.280000000,102.700000000,103.770000000,102.540000000,422756
2017-05-15T07:00:00Z,102.760000000,102.720000000,104.230000000,102.180000000,584079
2017-05-16T07:00:00Z,102.740000000,102.240000000,102.740000000,101.820000000,523440
2017-05-17T07:00:00Z,101.230000000,102.020000000,103.610000000,100.690000000,768047
2017-05-18T07:00:00Z,102.220000000,101.860000000,103.470000000,101.470000000,952083
2017-05-19T07:00:00Z,101.840000000,102.250000000,103.210000000,101.580000000,1075623
2017-05-22T07:00:00Z,102.510000000,102.500000000,103.360000000,102.310000000,558077
2017-05-23T07:00:00Z,102.630000000,102.910000000,103.730000000,102.290000000,426690
2017-05-24T07:00:00Z,103.190000000,102.170000000,103.515000000,102.120000000,527064
2017-05-25T07:00:00Z,102.300000000,102.660000000,103.100000000,102.032500000,821668
2017-05-26T07:00:00Z,102.740000000,101.840000000,103.130000000,101.480000000,455918
2017-05-30T07:00:00Z,102.000000000,101.220000000,102.400000000,101.210000000,720793
2017-05-31T07:00:00Z,101.200000000,101.030000000,101.980000000,100.800000000,1221366
2017-06-01T07:00:00Z,100.930000000,102.710000000,102.880000000,100.880000000,809135
2017-06-02T07:00:00Z,103.100000000,103.310000000,103.700000000,102.490000000,740231
2017-06-05T07:00:00Z,103.250000000,103.170000000,103.520000000,102.490000000,440109
2017-06-06T07:00:00Z,103.140000000,101.670000000,103.140000000,101.410000000,737143
2017-06-07T07:00:00Z,101.950000000,102.330000000,102.410000000,101.660000000,683143
2017-06-08T07:00:00Z,102.430000000,103.550000000,104.170000000,102.000000000,704833
2017-06-09T07:00:00Z,103.600000000,106.180000000,106.500000000,103.350000000,848915
2017-06-12T07:00:00Z,106.360000000,108.330000000,109.000000000,106.100000000,1260324
2017-06-13T07:00:00Z,107.140000000,107.170000000,108.170000000,106.190000000,754274
2017-06-14T07:00:00Z,107.550000000,106.240000000,107.865000000,105.850000000,617392
2017-06-15T07:00:00Z,105.660000000,106.070000000,106.720000000,105.660000000,531306
2017-06-16T07:00:00Z,106.350000000,105.730000000,106.360000000,105.190000000,1321482
2017-06-19T07:00:00Z,105.580000000,105.140000000,105.790000000,104.740000000,630411
2017-06-20T07:00:00Z,105.210000000,105.320000000,105.720000000,104.365000000,686210
2017-06-21T07:00:00Z,105.800000000,106.520000000,107.515000000,105.800000000,1346111
2017-06-22T07:00:00Z,106.640000000,106.300000000,107.700000000,106.090000000,1010214
2017-06-23T07:00:00Z,106.310000000,106.770000000,108.140000000,106.310000000,590915
2017-06-26T07:00:00Z,107.130000000,106.730000000,107.540000000,106.590000000,442310
2017-06-27T07:00:00Z,106.520000000,105.970000000,107.190000000,105.850000000,653438
2017-06-28T07:00:00Z,105.790000000,105.720000000,106.230000000,105.440000000,657115
2017-06-29T07:00:00Z,105.510000000,105.720000000,106.000000000,105.100000000,1106988
2017-06-30T07:00:00Z,106.140000000,105.800000000,106.400000000,105.330000000,1063921
2017-07-03T07:00:00Z,106.090000000,107.520000000,107.800000000,105.740000000,419862
2017-07-05T07:00:00Z,107.420000000,105.920000000,107.880000000,105.660000000,557663
2017-07-06T07:00:00Z,105.860000000,102.750000000,105.860000000,102.590000000,895995
2017-07-07T07:00:00Z,102.740000000,102.430000000,103.090000000,101.870000000,744514
2017-07-10T07:00:00Z,102.600000000,100.720000000,102.870000000,100.700000000,523102
2017-07-11T07:00:00Z,100.700000000,99.450000000,100.700000000,99.220000000,942944
2017-07-12T07:00:00Z,100.240000000,100.720000000,101.330000000,99.830000000,1076989
2017-07-13T07:00:00Z,101.620000000,103.520000000,103.600000000,101.200000000,999410
2017-07-14T07:00:00Z,103.960000000,104.700000000,105.060000000,103.730000000,585697
2017-07-17T07:00:00Z,104.600000000,104.880000000,105.660000000,104.020000000,663254
2017-07-18T07:00:00Z,104.640000000,103.340000000,105.110000000,103.000000000,802720
2017-07-19T07:00:00Z,103.430000000,104.910000000,104.960000000,103.430000000,434988
2017-07-20T07:00:00Z,103.980000000,101.140000000,105.080000000,100.440000000,1481182
2017-07-21T07:00:00Z,101.070000000,101.930000000,102.630000000,101.070000000,945613
2017-07-24T07:00:00Z,101.840000000,102.000000000,102.380000000,101.820000000,634551
2017-07-25T07:00:00Z,102.300000000,102.020000000,102.340000000,101.710000000,646336
2017-07-26T07:00:00Z,101.850000000,101.840000000,102.500000000,101.700000000,681097
2017-07-27T07:00:00Z,101.770000000,102.810000000,103.050000000,101.360000000,621821
2017-07-28T07:00:00Z,102.900000000,103.250000000,104.220000000,102.870000000,580949
2017-07-31T07:00:00Z,103.640000000,103.270000000,103.640000000,102.520000000,608401
2017-08-01T07:00:00Z,103.530000000,104.060000000,105.290000000,103.170000000,984622
2017-08-02T07:00:00Z,103.680000000,102.840000000,104.440000000,102.380000000,447884
2017-08-03T07:00:00Z,102.690000000,102.270000000,103.000000000,102.227500000,1447007
2017-08-04T07:00:00Z,102.240000000,102.590000000,103.210000000,102.200000000,405821
2017-08-07T07:00:00Z,102.580000000,102.290000000,102.710000000,102.145000000,446689
2017-08-08T07:00:00Z,102.160000000,101.850000000,102.520000000,101.690000000,450429
2017-08-09T07:00:00Z,101.910000000,101.700000000,102.130000000,101.310000000,558795
2017-08-10T07:00:00Z,101.210000000,100.030000000,101.710000000,100.000000000,825683
2017-08-11T07:00:00Z,99.770000000,99.000000000,100.225000000,97.680000000,941859
2017-08-14T07:00:00Z,99.600000000,100.370000000,100.889900000,99.060000000,706270
2017-08-15T07:00:00Z,100.350000000,99.470000000,100.350000000,98.600000000,493489
2017-08-16T07:00:00Z,99.320000000,99.200000000,100.090000000,98.970000000,781030
2017-08-17T07:00:00Z,98.660000000,97.660000000,99.299500000,97.660000000,632473
2017-08-18T07:00:00Z,97.500000000,96.470000000,97.960000000,96.160000000,600083
2017-08-21T07:00:00Z,96.480000000,97.470000000,97.960000000,96.130000000,507900
2017-08-22T07:00:00Z,97.530000000,96.980000000,97.700000000,96.200000000,524129
2017-08-23T07:00:00Z,96.890000000,98.130000000,98.770000000,96.590000000,783600
2017-08-24T07:00:00Z,98.100000000,97.100000000,98.360000000,97.010000000,789383
2017-08-25T07:00:00Z,97.460000000,97.850000000,98.370000000,96.640000000,341475
2017-08-28T07:00:00Z,98.250000000,96.830000000,98.800000000,96.390000000,523672
2017-08-29T07:00:00Z,96.580000000,96.160000000,96.870000000,95.860000000,337586
2017-08-30T07:00:00Z,96.030000000,97.050000000,97.220000000,95.440000000,437223
2017-08-31T07:00:00Z,97.400000000,96.380000000,97.690000000,96.080000000,1232782
2017-09-01T07:00:00Z,96.530000000,97.110000000,97.640000000,96.090000000,403488
2017-09-05T07:00:00Z,96.720000000,95.730000000,97.155000000,94.920000000,1067569
2017-09-06T07:00:00Z,96.060000000,96.540000000,97.050000000,95.730000000,728992
2017-09-07T07:00:00Z,96.470000000,96.340000000,96.900000000,95.500000000,580932
2017-09-08T07:00:00Z,96.130000000,95.450000000,96.460000000,95.350000000,834673
2017-09-11T07:00:00Z,95.960000000,96.600000000,96.740000000,95.830000000,606133
2017-09-12T07:00:00Z,96.620000000,96.170000000,97.270000000,95.930000000,695668
2017-09-13T07:00:00Z,95.910000000,96.120000000,96.300000000,95.550000000,679783
2017-09-14T07:00:00Z,96.400000000,97.840000000,98.300000000,96.250000000,1741762
2017-09-15T07:00:00Z,98.050000000,98.440000000,98.450000000,96.720000000,2184045
2017-09-18T07:00:00Z,98.670000000,98.180000000,98.700000000,97.360000000,811163
2017-09-19T07:00:00Z,98.050000000,96.340000000,98.220000000,96.240000000,1161490
2017-09-20T07:00:00Z,96.470000000,97.720000000,97.780000000,96.370000000,790290
2017-09-21T07:00:00Z,98.040000000,101.130000000,101.860000000,97.760000000,1457201
2017-09-22T07:00:00Z,101.200000000,100.670000000,102.620000000,100.520000000,797852
2017-09-25T07:00:00Z,100.380000000,101.700000000,102.110000000,100.380000000,693317
2017-09-26T07:00:00Z,101.690000000,103.060000000,103.410000000,101.580000000,1139041
2017-09-27T07:00:00Z,102.720000000,101.250000000,103.160000000,101.230000000,993088
2017-09-28T07:00:00Z,101.130000000,100.760000000,102.190000000,100.450000000,799164
2017-09-29T07:00:00Z,99.680000000,101.320000000,101.375000000,99.580000000,859519
2017-10-02T07:00:00Z,101.310000000,102.140000000,102.560000000,101.310000000,919547
2017-10-03T07:00:00Z,102.140000000,103.220000000,103.610000000,102.140000000,805974
2017-10-04T07:00:00Z,103.020000000,104.390000000,104.450000000,102.900000000,687342
2017-10-05T07:00:00Z,104.480000000,104.370000000,105.570000000,104.250000000,1077198
2017-10-06T07:00:00Z,104.060000000,105.010000000,105.120000000,103.460000000,861933
2017-10-09T07:00:00Z,104.000000000,104.350000000,104.680000000,103.890000000,720081
2017-10-10T07:00:00Z,104.630000000,104.490000000,105.790000000,103.610000000,1015062
